Source,CH3
Second,Volt
-0.12248000000,0.16200,
-0.12246000000,0.15400,
-0.12244000000,0.17600,
-0.12242000000,0.16800,
-0.12239998750,0.16000,
-0.12238000000,0.16800,
-0.12236000000,0.15600,
-0.12233998750,0.17400,
-0.12232000000,0.16600,
-0.12230000000,0.16800,
-0.12228000000,0.18000,
-0.12226000000,0.16600,
-0.12224000000,0.17400,
-0.12222000000,0.16600,
-0.12220000000,0.18200,
-0.12218000000,0.17600,
-0.12216000000,0.16400,
-0.12214000000,0.18400,
-0.12212000000,0.17000,
-0.12210000000,0.18000,
-0.12208000000,0.17200,
-0.12205998750,0.16800,
-0.12204000000,0.18600,
-0.12202000000,0.16200,
-0.12200000000,0.16400,
-0.12198000000,0.17000,
-0.12196000000,0.15800,
-0.12194000000,0.16600,
-0.12192000000,0.14800,
-0.12190000000,0.14400,
-0.12188000000,0.14800,
-0.12186000000,0.14200,
-0.12184000000,0.15000,
-0.12182000000,0.12200,
-0.12180000000,0.14800,
-0.12178000000,0.13200,
-0.12176000000,0.12600,
-0.12174000000,0.14200,
-0.12171998750,0.12000,
-0.12170000000,0.15000,
-0.12168000000,0.12200,
-0.12166000000,0.12600,
-0.12164000000,0.14600,
-0.12162000000,0.12000,
-0.12160000000,0.14200,
-0.12158000000,0.12200,
-0.12156000000,0.14400,
-0.12154000000,0.12800,
-0.12152000000,0.11400,
-0.12150000000,0.14400,
-0.12148000000,0.11800,
-0.12146000000,0.13000,
-0.12143998750,0.11600,
-0.12142000000,0.11000,
-0.12140000000,0.12600,
-0.12138000000,0.09600,
-0.12136000000,0.11600,
-0.12134000000,0.10800,
-0.12132000000,0.10000,
-0.12130000000,0.10800,
-0.12128000000,0.09200,
-0.12126000000,0.11200,
-0.12124000000,0.09600,
-0.12122000000,0.10400,
-0.12120000000,0.11400,
-0.12118000000,0.09000,
-0.12116000000,0.11200,
-0.12114000000,0.10200,
-0.12112000000,0.11600,
-0.12109998750,0.11200,
-0.12108000000,0.09600,
-0.12106000000,0.12400,
-0.12104000000,0.09400,
-0.12102000000,0.10200,
-0.12100000000,0.10400,
-0.12098000000,0.09200,
-0.12096000000,0.11000,
-0.12094000000,0.08800,
-0.12092000000,0.10600,
-0.12090000000,0.10000,
-0.12088000000,0.09800,
-0.12086000000,0.11200,
-0.12084000000,0.09600,
-0.12081998750,0.10200,
-0.12080000000,0.09000,
-0.12078000000,0.08800,
-0.12076000000,0.09600,
-0.12074000000,0.07800,
-0.12072000000,0.08800,
-0.12070000000,0.07800,
-0.12068000000,0.07000,
-0.12066000000,0.08000,
-0.12064000000,0.05400,
-0.12062000000,0.05600,
-0.12060000000,0.04000,
-0.12058000000,0.04600,
-0.12056000000,0.04000,
-0.12054000000,0.03000,
-0.12052000000,0.02600,
-0.12050000000,0.01200,
-0.12047998750,0.03000,
-0.12046000000,0.01000,
-0.12044000000,0.01600,
-0.12042000000,0.03000,
-0.12040000000,0.02800,
-0.12038000000,0.04000,
-0.12036000000,0.03600,
-0.12034000000,0.04000,
-0.12032000000,0.04200,
-0.12030000000,0.03000,
-0.12028000000,0.03200,
-0.12026000000,0.02600,
-0.12024000000,0.02200,
-0.12022000000,0.01200,
-0.12019998750,0.00800,
-0.12018000000,0.02000,
-0.12016000000,0.01000,
-0.12013998750,0.02000,
-0.12012000000,0.01400,
-0.12010000000,0.01400,
-0.12008000000,0.01800,
-0.12006000000,0.00800,
-0.12004000000,0.01600,
-0.12002000000,0.01600,
-0.12000000000,0.01200,
-0.11998000000,0.01000,
-0.11996000000,0.01000,
-0.11994000000,0.01600,
-0.11992000000,0.01600,
-0.11990000000,0.01400,
-0.11988000000,0.01400,
-0.11985998750,0.00800,
-0.11984000000,0.01600,
-0.11982000000,0.00800,
-0.11980000000,0.01400,
-0.11978000000,0.01000,
-0.11976000000,0.01000,
-0.11974000000,0.01400,
-0.11972000000,0.00600,
-0.11970000000,0.01600,
-0.11968000000,0.01200,
-0.11966000000,0.01200,
-0.11964000000,0.01200,
-0.11962000000,0.00600,
-0.11960000000,0.01000,
-0.11958000000,0.00800,
-0.11956000000,0.01200,
-0.11954000000,0.01800,
-0.11951998750,0.01000,
-0.11950000000,0.01000,
-0.11948000000,0.01000,
-0.11946000000,0.01400,
-0.11944000000,0.01400,
-0.11942000000,0.01200,
-0.11940000000,0.01600,
-0.11938000000,0.01600,
-0.11936000000,0.01200,
-0.11934000000,0.02000,
-0.11932000000,0.01000,
-0.11930000000,0.01800,
-0.11928000000,0.01000,
-0.11926000000,0.02200,
-0.11923998750,0.01000,
-0.11922000000,0.00400,
-0.11920000000,0.02000,
-0.11918000000,0.01200,
-0.11916000000,0.05200,
-0.11914000000,0.01200,
-0.11912000000,0.02400,
-0.11910000000,0.02000,
-0.11908000000,0.01400,
-0.11906000000,0.02200,
-0.11904000000,0.01800,
-0.11902000000,0.01800,
-0.11900000000,0.02000,
-0.11898000000,0.03000,
-0.11896000000,0.04800,
-0.11894000000,0.01200,
-0.11892000000,0.03800,
-0.11889998750,0.02000,
-0.11888000000,0.10200,
-0.11886000000,0.01600,
-0.11884000000,0.03600,
-0.11882000000,0.08600,
-0.11880000000,0.03000,
-0.11878000000,0.08800,
-0.11876000000,0.02000,
-0.11874000000,0.03400,
-0.11872000000,0.03000,
-0.11870000000,0.10600,
-0.11868000000,0.02400,
-0.11866000000,0.10400,
-0.11864000000,0.01800,
-0.11861998750,0.09400,
-0.11860000000,0.05200,
-0.11858000000,0.07800,
-0.11856000000,0.07800,
-0.11854000000,0.06800,
-0.11852000000,0.07800,
-0.11850000000,0.06000,
-0.11848000000,0.07600,
-0.11846000000,0.09600,
-0.11844000000,0.05200,
-0.11842000000,0.07400,
-0.11840000000,0.06400,
-0.11838000000,0.07400,
-0.11836000000,0.06000,
-0.11834000000,0.06600,
-0.11832000000,0.06800,
-0.11830000000,0.06200,
-0.11827998750,0.06600,
-0.11826000000,0.07000,
-0.11824000000,0.08400,
-0.11822000000,0.05600,
-0.11820000000,0.06000,
-0.11818000000,0.06600,
-0.11816000000,0.06200,
-0.11814000000,0.06200,
-0.11812000000,0.05200,
-0.11810000000,0.06800,
-0.11808000000,0.05000,
-0.11806000000,0.07400,
-0.11804000000,0.06400,
-0.11802000000,0.06600,
-0.11800000000,0.05600,
-0.11798000000,0.06400,
-0.11796000000,0.05600,
-0.11793998750,0.05200,
-0.11792000000,0.06200,
-0.11790000000,0.06000,
-0.11788000000,0.07000,
-0.11786000000,0.05800,
-0.11784000000,0.07200,
-0.11782000000,0.07600,
-0.11780000000,0.05000,
-0.11778000000,0.06800,
-0.11776000000,0.05000,
-0.11774000000,0.07600,
-0.11772000000,0.05000,
-0.11770000000,0.07000,
-0.11768000000,0.07400,
-0.11765998750,0.05600,
-0.11764000000,0.06800,
-0.11762000000,0.05600,
-0.11760000000,0.07400,
-0.11758000000,0.04400,
-0.11756000000,0.04200,
-0.11754000000,0.06200,
-0.11752000000,0.04200,
-0.11750000000,0.05200,
-0.11748000000,0.04200,
-0.11746000000,0.05800,
-0.11744000000,0.05200,
-0.11742000000,0.05800,
-0.11740000000,0.06200,
-0.11738000000,0.05400,
-0.11736000000,0.06200,
-0.11734000000,0.05400,
-0.11731998750,0.05800,
-0.11730000000,0.05400,
-0.11728000000,0.05600,
-0.11726000000,0.06000,
-0.11724000000,0.06400,
-0.11722000000,0.05600,
-0.11720000000,0.06000,
-0.11718000000,0.06000,
-0.11716000000,0.05600,
-0.11714000000,0.05400,
-0.11712000000,0.04000,
-0.11710000000,0.05600,
-0.11708000000,0.04600,
-0.11706000000,0.05600,
-0.11703998750,0.05800,
-0.11702000000,0.04600,
-0.11700000000,0.06000,
-0.11698000000,0.04200,
-0.11696000000,0.06400,
-0.11694000000,0.07400,
-0.11692000000,0.00800,
-0.11690000000,0.01000,
-0.11688000000,0.03800,
-0.11686000000,0.03600,
-0.11684000000,-0.00400,
-0.11682000000,-0.00200,
-0.11680000000,0.00400,
-0.11678000000,-0.00600,
-0.11676000000,-0.00600,
-0.11674000000,0.00400,
-0.11672000000,0.01000,
-0.11669998750,-0.01000,
-0.11668000000,0.01000,
-0.11666000000,-0.00200,
-0.11664000000,-0.00800,
-0.11662000000,0.00200,
-0.11660000000,-0.01200,
-0.11658000000,-0.01000,
-0.11656000000,0.00400,
-0.11654000000,-0.00200,
-0.11652000000,0.01000,
-0.11650000000,-0.01400,
-0.11648000000,0.02600,
-0.11646000000,0.02000,
-0.11644000000,-0.00200,
-0.11641998750,0.01000,
-0.11640000000,0.00200,
-0.11638000000,0.02000,
-0.11636000000,-0.00200,
-0.11634000000,-0.01400,
-0.11632000000,0.01000,
-0.11630000000,0.00,
-0.11628000000,-0.18800,
-0.11626000000,0.32000,
-0.11624000000,0.24000,
-0.11622000000,0.07600,
-0.11620000000,0.00400,
-0.11618000000,-0.02400,
-0.11616000000,0.01600,
-0.11614000000,-0.00200,
-0.11612000000,0.01600,
-0.11610000000,-0.00200,
-0.11607998750,-0.01400,
-0.11606000000,0.01400,
-0.11604000000,-0.00600,
-0.11602000000,0.01000,
-0.11600000000,-0.01000,
-0.11598000000,0.01000,
-0.11596000000,0.01600,
-0.11594000000,-0.01000,
-0.11592000000,0.01000,
-0.11590000000,-0.00800,
-0.11588000000,0.02400,
-0.11586000000,0.00200,
-0.11584000000,-0.00400,
-0.11582000000,0.03200,
-0.11580000000,-0.00600,
-0.11578000000,0.01200,
-0.11576000000,-0.00200,
-0.11574000000,0.00400,
-0.11572000000,0.01400,
-0.11570000000,-0.01000,
-0.11568000000,0.01800,
-0.11566000000,0.00,
-0.11564000000,0.01000,
-0.11562000000,0.01200,
-0.11560000000,-0.00200,
-0.11558000000,0.02200,
-0.11556000000,-0.00400,
-0.11554000000,0.01000,
-0.11552000000,0.01400,
-0.11550000000,-0.01200,
-0.11548000000,0.05000,
-0.11545998750,-0.01200,
-0.11544000000,0.01400,
-0.11542000000,0.00800,
-0.11540000000,-0.00200,
-0.11538000000,0.02200,
-0.11536000000,-0.01600,
-0.11534000000,0.01000,
-0.11532000000,0.00600,
-0.11530000000,0.00200,
-0.11528000000,0.01000,
-0.11526000000,-0.01000,
-0.11524000000,0.02200,
-0.11522000000,0.00400,
-0.11520000000,0.00200,
-0.11518000000,0.02000,
-0.11516000000,0.00,
-0.11514000000,0.00800,
-0.11511998750,0.00200,
-0.11510000000,0.00400,
-0.11508000000,0.01200,
-0.11506000000,0.00,
-0.11504000000,0.02400,
-0.11502000000,0.00,
-0.11500000000,0.00,
-0.11498000000,0.01400,
-0.11496000000,0.00600,
-0.11494000000,0.02400,
-0.11492000000,0.00200,
-0.11490000000,0.01400,
-0.11488000000,0.00200,
-0.11486000000,-0.01200,
-0.11483998750,0.01200,
-0.11482000000,-0.01400,
-0.11480000000,0.02000,
-0.11478000000,-0.02400,
-0.11476000000,0.01200,
-0.11474000000,0.01600,
-0.11472000000,-0.01400,
-0.11470000000,0.01600,
-0.11468000000,-0.01600,
-0.11466000000,0.03200,
-0.11464000000,-0.00200,
-0.11462000000,-0.01000,
-0.11460000000,0.02200,
-0.11458000000,-0.00400,
-0.11456000000,0.02000,
-0.11454000000,0.00200,
-0.11452000000,0.00200,
-0.11449998750,0.02400,
-0.11448000000,-0.00200,
-0.11446000000,0.01000,
-0.11444000000,0.00600,
-0.11442000000,0.00800,
-0.11440000000,0.00200,
-0.11438000000,-0.00400,
-0.11436000000,0.01200,
-0.11434000000,-0.00800,
-0.11432000000,0.00800,
-0.11430000000,-0.00200,
-0.11428000000,0.00800,
-0.11426000000,0.01600,
-0.11424000000,-0.01200,
-0.11422000000,0.00200,
-0.11420000000,0.00600,
-0.11418000000,-0.00600,
-0.11416000000,0.01200,
-0.11414000000,-0.01000,
-0.11412000000,0.01400,
-0.11410000000,0.00800,
-0.11408000000,0.00200,
-0.11406000000,0.00800,
-0.11404000000,0.00400,
-0.11402000000,0.02000,
-0.11400000000,-0.00400,
-0.11398000000,0.00600,
-0.11396000000,0.00800,
-0.11394000000,0.00,
-0.11392000000,0.01200,
-0.11390000000,0.00,
-0.11387998750,0.01200,
-0.11386000000,0.01000,
-0.11384000000,-0.01000,
-0.11382000000,0.00400,
-0.11380000000,0.00,
-0.11378000000,-0.00400,
-0.11376000000,0.00200,
-0.11374000000,0.00,
-0.11372000000,0.01600,
-0.11370000000,-0.00400,
-0.11368000000,0.00800,
-0.11366000000,0.01600,
-0.11364000000,-0.00200,
-0.11362000000,0.01200,
-0.11360000000,-0.01400,
-0.11358000000,0.01400,
-0.11356000000,-0.00600,
-0.11354000000,-0.00600,
-0.11352000000,0.01800,
-0.11350000000,-0.00400,
-0.11348000000,0.01400,
-0.11346000000,0.00,
-0.11344000000,0.01800,
-0.11342000000,0.00,
-0.11340000000,-0.00400,
-0.11338000000,0.01600,
-0.11336000000,0.00200,
-0.11334000000,0.00400,
-0.11332000000,-0.00400,
-0.11330000000,0.01000,
-0.11328000000,0.01400,
-0.11325998750,0.00200,
-0.11324000000,0.00400,
-0.11322000000,0.01200,
-0.11320000000,0.00600,
-0.11318000000,0.00400,
-0.11316000000,0.00600,
-0.11314000000,-0.01600,
-0.11312000000,0.00600,
-0.11310000000,-0.00800,
-0.11308000000,0.02200,
-0.11306000000,0.00200,
-0.11304000000,0.01000,
-0.11302000000,0.02400,
-0.11300000000,-0.00600,
-0.11298000000,0.00800,
-0.11296000000,-0.00600,
-0.11294000000,0.01800,
-0.11291998750,-0.01000,
-0.11290000000,-0.01200,
-0.11288000000,0.01800,
-0.11286000000,-0.00600,
-0.11284000000,0.01800,
-0.11282000000,-0.00400,
-0.11280000000,0.02400,
-0.11278000000,-0.00400,
-0.11276000000,-0.00800,
-0.11274000000,0.01400,
-0.11272000000,0.00400,
-0.11270000000,0.00800,
-0.11268000000,-0.01400,
-0.11266000000,0.01800,
-0.11264000000,0.02600,
-0.11262000000,-0.00400,
-0.11260000000,0.01000,
-0.11258000000,0.00400,
-0.11256000000,0.02200,
-0.11254000000,0.00400,
-0.11252000000,0.00200,
-0.11250000000,-0.01600,
-0.11248000000,0.00400,
-0.11246000000,-0.00200,
-0.11244000000,0.01200,
-0.11242000000,0.00200,
-0.11240000000,0.01000,
-0.11238000000,0.01200,
-0.11236000000,0.00400,
-0.11234000000,0.01000,
-0.11232000000,-0.00600,
-0.11229998750,0.01600,
-0.11228000000,-0.01000,
-0.11226000000,-0.01200,
-0.11224000000,0.01600,
-0.11222000000,-0.00200,
-0.11220000000,0.01800,
-0.11218000000,-0.00200,
-0.11216000000,0.01600,
-0.11214000000,0.00200,
-0.11212000000,0.00,
-0.11210000000,0.00800,
-0.11208000000,0.00,
-0.11206000000,0.00600,
-0.11204000000,-0.01200,
-0.11202000000,0.01000,
-0.11200000000,0.02400,
-0.11198000000,-0.00400,
-0.11196000000,0.01200,
-0.11194000000,0.00600,
-0.11192000000,0.02000,
-0.11190000000,0.00600,
-0.11188000000,0.00,
-0.11186000000,0.00400,
-0.11184000000,0.00600,
-0.11182000000,0.00200,
-0.11180000000,0.00600,
-0.11178000000,0.00200,
-0.11176000000,0.01000,
-0.11174000000,0.01200,
-0.11172000000,0.00600,
-0.11170000000,0.00800,
-0.11167998750,-0.00400,
-0.11166000000,0.01200,
-0.11164000000,-0.00200,
-0.11162000000,-0.00200,
-0.11160000000,0.01400,
-0.11158000000,0.00,
-0.11156000000,0.01600,
-0.11154000000,0.00200,
-0.11152000000,0.01000,
-0.11150000000,0.00600,
-0.11148000000,0.00200,
-0.11146000000,0.01200,
-0.11144000000,0.00200,
-0.11142000000,0.00800,
-0.11140000000,0.00,
-0.11138000000,0.01000,
-0.11136000000,0.01200,
-0.11134000000,0.00200,
-0.11132000000,0.01000,
-0.11130000000,0.00600,
-0.11128000000,0.01000,
-0.11126000000,0.00600,
-0.11124000000,0.00600,
-0.11122000000,0.01000,
-0.11120000000,0.00800,
-0.11118000000,0.01000,
-0.11116000000,0.00600,
-0.11114000000,0.01200,
-0.11112000000,0.01600,
-0.11110000000,0.01400,
-0.11108000000,0.01600,
-0.11105998750,0.01200,
-0.11104000000,0.00200,
-0.11102000000,0.01000,
-0.11100000000,0.00800,
-0.11098000000,0.00800,
-0.11096000000,0.01000,
-0.11094000000,0.01000,
-0.11092000000,0.01800,
-0.11090000000,0.00600,
-0.11088000000,0.01400,
-0.11086000000,0.01400,
-0.11084000000,0.01000,
-0.11082000000,0.01600,
-0.11080000000,0.00600,
-0.11078000000,0.01000,
-0.11076000000,0.01000,
-0.11074000000,0.01000,
-0.11071998750,0.01400,
-0.11070000000,0.01200,
-0.11068000000,0.01400,
-0.11066000000,0.00800,
-0.11064000000,0.01200,
-0.11062000000,0.01600,
-0.11060000000,0.01000,
-0.11058000000,0.02000,
-0.11056000000,0.01000,
-0.11054000000,0.01400,
-0.11052000000,0.02600,
-0.11050000000,0.01000,
-0.11048000000,0.02000,
-0.11046000000,0.01200,
-0.11044000000,0.02000,
-0.11042000000,0.01000,
-0.11040000000,0.01000,
-0.11038000000,0.02000,
-0.11036000000,0.01400,
-0.11034000000,0.02600,
-0.11032000000,0.00200,
-0.11030000000,0.02000,
-0.11028000000,0.02200,
-0.11026000000,0.01000,
-0.11024000000,0.02600,
-0.11022000000,0.01800,
-0.11020000000,0.02200,
-0.11018000000,0.02000,
-0.11016000000,0.01600,
-0.11014000000,0.02800,
-0.11012000000,0.02200,
-0.11009998750,0.02600,
-0.11008000000,0.02200,
-0.11006000000,0.02600,
-0.11004000000,0.03200,
-0.11002000000,0.02600,
-0.11000000000,0.04200,
-0.10998000000,0.04000,
-0.10996000000,0.03200,
-0.10994000000,0.04800,
-0.10992000000,0.03600,
-0.10990000000,0.05400,
-0.10988000000,0.05400,
-0.10986000000,0.04600,
-0.10984000000,0.05400,
-0.10982000000,0.04200,
-0.10980000000,0.05800,
-0.10978000000,0.05000,
-0.10976000000,0.04800,
-0.10974000000,0.06200,
-0.10972000000,0.04600,
-0.10970000000,0.06200,
-0.10968000000,0.04000,
-0.10966000000,0.05800,
-0.10964000000,0.05600,
-0.10962000000,0.04200,
-0.10960000000,0.06000,
-0.10958000000,0.04600,
-0.10956000000,0.06000,
-0.10954000000,0.05400,
-0.10952000000,0.05400,
-0.10950000000,0.07000,
-0.10947998750,0.04600,
-0.10946000000,0.06200,
-0.10944000000,0.04800,
-0.10942000000,0.04600,
-0.10940000000,0.04800,
-0.10938000000,0.03000,
-0.10936000000,0.05000,
-0.10934000000,0.03000,
-0.10932000000,0.03600,
-0.10930000000,0.05600,
-0.10928000000,0.04600,
-0.10926000000,0.08000,
-0.10924000000,0.07400,
-0.10922000000,0.10400,
-0.10920000000,0.11600,
-0.10918000000,0.10600,
-0.10916000000,0.14600,
-0.10914000000,0.12400,
-0.10912000000,0.13400,
-0.10910000000,0.11400,
-0.10908000000,0.10600,
-0.10906000000,0.11200,
-0.10904000000,0.08800,
-0.10902000000,0.09800,
-0.10900000000,0.09000,
-0.10898000000,0.08600,
-0.10896000000,0.09400,
-0.10894000000,0.07800,
-0.10892000000,0.09600,
-0.10890000000,0.09400,
-0.10888000000,0.08600,
-0.10886000000,0.09800,
-0.10884000000,0.09400,
-0.10882000000,0.11200,
-0.10880000000,0.11400,
-0.10878000000,0.10800,
-0.10876000000,0.11600,
-0.10874000000,0.11600,
-0.10872000000,0.13800,
-0.10870000000,0.12200,
-0.10868000000,0.13600,
-0.10866000000,0.14000,
-0.10864000000,0.12800,
-0.10862000000,0.15000,
-0.10860000000,0.13000,
-0.10858000000,0.15400,
-0.10856000000,0.14800,
-0.10854000000,0.14000,
-0.10851998750,0.16000,
-0.10850000000,0.14800,
-0.10848000000,0.15600,
-0.10846000000,0.15000,
-0.10844000000,0.15600,
-0.10842000000,0.16800,
-0.10840000000,0.14600,
-0.10838000000,0.16000,
-0.10836000000,0.15400,
-0.10834000000,0.16600,
-0.10832000000,0.16200,
-0.10830000000,0.14600,
-0.10828000000,0.16000,
-0.10826000000,0.15400,
-0.10824000000,0.15400,
-0.10822000000,0.16000,
-0.10820000000,0.15000,
-0.10818000000,0.16400,
-0.10816000000,0.15400,
-0.10814000000,0.15600,
-0.10812000000,0.15800,
-0.10810000000,0.15600,
-0.10808000000,0.16000,
-0.10806000000,0.15000,
-0.10804000000,0.15800,
-0.10802000000,0.14800,
-0.10800000000,0.14800,
-0.10798000000,0.15200,
-0.10796000000,0.14200,
-0.10794000000,0.14800,
-0.10792000000,0.13600,
-0.10789998750,0.13600,
-0.10788000000,0.13800,
-0.10786000000,0.13800,
-0.10784000000,0.13800,
-0.10782000000,0.14200,
-0.10780000000,0.14200,
-0.10778000000,0.14800,
-0.10776000000,0.14400,
-0.10774000000,0.14000,
-0.10772000000,0.15000,
-0.10770000000,0.14000,
-0.10768000000,0.32000,
-0.10766000000,0.32000,
-0.10764000000,0.19400,
-0.10762000000,0.08200,
-0.10760000000,0.07000,
-0.10758000000,0.09400,
-0.10756000000,0.08200,
-0.10754000000,0.09400,
-0.10752000000,0.08800,
-0.10750000000,0.09200,
-0.10748000000,0.08400,
-0.10746000000,0.08000,
-0.10744000000,0.08600,
-0.10742000000,0.07800,
-0.10740000000,0.09200,
-0.10738000000,0.07800,
-0.10736000000,0.09200,
-0.10734000000,0.09400,
-0.10732000000,0.02400,
-0.10730000000,0.01200,
-0.10727998750,-0.00400,
-0.10726000000,0.01000,
-0.10724000000,0.00200,
-0.10722000000,0.01200,
-0.10720000000,0.01600,
-0.10718000000,0.01800,
-0.10716000000,0.02600,
-0.10714000000,0.03600,
-0.10712000000,0.05400,
-0.10710000000,0.05400,
-0.10708000000,0.06400,
-0.10706000000,0.07800,
-0.10704000000,0.08400,
-0.10702000000,0.08800,
-0.10700000000,0.09200,
-0.10698000000,0.09800,
-0.10696000000,0.10200,
-0.10694000000,0.12000,
-0.10692000000,0.11200,
-0.10690000000,0.13200,
-0.10688000000,0.12400,
-0.10686000000,0.13800,
-0.10684000000,0.12400,
-0.10682000000,0.12200,
-0.10680000000,0.14200,
-0.10678000000,0.14000,
-0.10676000000,0.15000,
-0.10674000000,0.12400,
-0.10672000000,0.14000,
-0.10670000000,0.14200,
-0.10668000000,0.10400,
-0.10666000000,0.11200,
-0.10664000000,0.08000,
-0.10662000000,0.09200,
-0.10660000000,0.04800,
-0.10658000000,0.05000,
-0.10656000000,0.05200,
-0.10654000000,0.04800,
-0.10652000000,0.07800,
-0.10650000000,0.09400,
-0.10648000000,0.14000,
-0.10646000000,0.14800,
-0.10644000000,0.16600,
-0.10642000000,0.20200,
-0.10640000000,0.19200,
-0.10638000000,0.19000,
-0.10636000000,0.16200,
-0.10634000000,0.17400,
-0.10631998750,0.16800,
-0.10630000000,0.15800,
-0.10628000000,0.14400,
-0.10626000000,0.13600,
-0.10624000000,0.11200,
-0.10622000000,0.11400,
-0.10620000000,0.10000,
-0.10618000000,0.09600,
-0.10616000000,0.10400,
-0.10614000000,0.10600,
-0.10612000000,0.12400,
-0.10610000000,0.11400,
-0.10608000000,0.13800,
-0.10606000000,0.15400,
-0.10604000000,0.14200,
-0.10602000000,0.15800,
-0.10600000000,0.13800,
-0.10598000000,0.16600,
-0.10596000000,0.15000,
-0.10594000000,0.15800,
-0.10592000000,0.16800,
-0.10590000000,0.14800,
-0.10588000000,0.16200,
-0.10586000000,0.15600,
-0.10584000000,0.17400,
-0.10582000000,0.16000,
-0.10580000000,0.15600,
-0.10578000000,0.17400,
-0.10576000000,0.15600,
-0.10574000000,0.17000,
-0.10572000000,0.15600,
-0.10569998750,0.17400,
-0.10568000000,0.17800,
-0.10566000000,0.16800,
-0.10564000000,0.17400,
-0.10562000000,0.17400,
-0.10560000000,0.17400,
-0.10558000000,0.17400,
-0.10556000000,0.17200,
-0.10554000000,0.17000,
-0.10552000000,0.16800,
-0.10550000000,0.17000,
-0.10548000000,0.18200,
-0.10546000000,0.17200,
-0.10544000000,0.18000,
-0.10542000000,0.18200,
-0.10540000000,0.17400,
-0.10538000000,0.17200,
-0.10536000000,0.15400,
-0.10534000000,0.17000,
-0.10532000000,0.16400,
-0.10530000000,0.16400,
-0.10528000000,0.16200,
-0.10526000000,0.15200,
-0.10524000000,0.15800,
-0.10522000000,0.15200,
-0.10520000000,0.15200,
-0.10518000000,0.14400,
-0.10516000000,0.13600,
-0.10514000000,0.14000,
-0.10512000000,0.13200,
-0.10510000000,0.14400,
-0.10508000000,0.13600,
-0.10506000000,0.13800,
-0.10504000000,0.13800,
-0.10502000000,0.12800,
-0.10500000000,0.13600,
-0.10498000000,0.12800,
-0.10496000000,0.12600,
-0.10494000000,0.13600,
-0.10492000000,0.12600,
-0.10490000000,0.13200,
-0.10488000000,0.12200,
-0.10486000000,0.13200,
-0.10483999375,0.13400,
-0.10482000000,0.12000,
-0.10480000000,0.12200,
-0.10477999375,0.11800,
-0.10476000000,0.13200,
-0.10473999375,0.11200,
-0.10471999375,0.11000,
-0.10470000000,0.12600,
-0.10467999375,0.10000,
-0.10466000000,0.11200,
-0.10464000000,0.10200,
-0.10461999375,0.10600,
-0.10460000000,0.11200,
-0.10458000000,0.09800,
-0.10455999375,0.10800,
-0.10454000000,0.10400,
-0.10452000000,0.11200,
-0.10449999375,0.10600,
-0.10448000000,0.10200,
-0.10446000000,0.10800,
-0.10443999375,0.09600,
-0.10442000000,0.10200,
-0.10439999375,0.10800,
-0.10437999375,0.10000,
-0.10436000000,0.10800,
-0.10433999375,0.09400,
-0.10432000000,0.09600,
-0.10430000000,0.10400,
-0.10427999375,0.09600,
-0.10426000000,0.10800,
-0.10424000000,0.09000,
-0.10421999375,0.10400,
-0.10420000000,0.10000,
-0.10418000000,0.09000,
-0.10415999375,0.10000,
-0.10414000000,0.08600,
-0.10411999375,0.11400,
-0.10409999375,0.07800,
-0.10408000000,0.08000,
-0.10405999375,0.08800,
-0.10403999375,0.07000,
-0.10402000000,0.08800,
-0.10399999375,0.06000,
-0.10398000000,0.06200,
-0.10396000000,0.05000,
-0.10393999375,0.04000,
-0.10392000000,0.05800,
-0.10390000000,0.04400,
-0.10387999375,0.05200,
-0.10386000000,0.03000,
-0.10384000000,0.02200,
-0.10381999375,0.02800,
-0.10380000000,0.00200,
-0.10377999375,0.02400,
-0.10375999375,0.02000,
-0.10374000000,0.02400,
-0.10371999375,0.03200,
-0.10370000000,0.02600,
-0.10368000000,0.04800,
-0.10365999375,0.03600,
-0.10364000000,0.03800,
-0.10362000000,0.04000,
-0.10359999375,0.02000,
-0.10358000000,0.02600,
-0.10356000000,0.01000,
-0.10353999375,0.02200,
-0.10352000000,0.01600,
-0.10349999375,0.00400,
-0.10347999375,0.02400,
-0.10346000000,0.00800,
-0.10343999375,0.02000,
-0.10341999375,0.01600,
-0.10340000000,0.01600,
-0.10337999375,0.02800,
-0.10336000000,0.00400,
-0.10334000000,0.02000,
-0.10331999375,0.01400,
-0.10330000000,0.01600,
-0.10328000000,0.02000,
-0.10325999375,0.00800,
-0.10324000000,0.01600,
-0.10322000000,0.00800,
-0.10319999375,0.01200,
-0.10318000000,0.01600,
-0.10315999375,0.01000,
-0.10313999375,0.01600,
-0.10312000000,0.00800,
-0.10309999375,0.01600,
-0.10308000000,0.01600,
-0.10306000000,0.00400,
-0.10303999375,0.02000,
-0.10302000000,0.00600,
-0.10300000000,0.01600,
-0.10297999375,0.02200,
-0.10296000000,0.00400,
-0.10294000000,0.01800,
-0.10291999375,0.00800,
-0.10290000000,0.02200,
-0.10288000000,0.00800,
-0.10285999375,0.01400,
-0.10284000000,0.02000,
-0.10281999375,0.01000,
-0.10279999375,0.01800,
-0.10278000000,0.00200,
-0.10275999375,0.01400,
-0.10274000000,0.01800,
-0.10272000000,0.00600,
-0.10269999375,0.01400,
-0.10268000000,0.00800,
-0.10266000000,0.01000,
-0.10263999375,0.01200,
-0.10262000000,0.01600,
-0.10260000000,0.02200,
-0.10257999375,0.01000,
-0.10256000000,0.02000,
-0.10253999375,0.01800,
-0.10251999375,0.04000,
-0.10250000000,0.01400,
-0.10247999375,0.00800,
-0.10246000000,0.03000,
-0.10244000000,0.01200,
-0.10241999375,0.08800,
-0.10240000000,0.01800,
-0.10238000000,0.03200,
-0.10235999375,0.04000,
-0.10234000000,0.09400,
-0.10232000000,0.02600,
-0.10229999375,0.10600,
-0.10228000000,0.01800,
-0.10226000000,0.10200,
-0.10223999375,0.01800,
-0.10222000000,0.03400,
-0.10219999375,0.07600,
-0.10217999375,0.08800,
-0.10216000000,0.06800,
-0.10213999375,0.06400,
-0.10212000000,0.07600,
-0.10210000000,0.07200,
-0.10207999375,0.07200,
-0.10206000000,0.07000,
-0.10204000000,0.06600,
-0.10201999375,0.06600,
-0.10200000000,0.07200,
-0.10198000000,0.06600,
-0.10195999375,0.07000,
-0.10194000000,0.07400,
-0.10191999375,0.06600,
-0.10189999375,0.07800,
-0.10188000000,0.07600,
-0.10185999375,0.06400,
-0.10183999375,0.06200,
-0.10182000000,0.07000,
-0.10179999375,0.06200,
-0.10178000000,0.06400,
-0.10176000000,0.07000,
-0.10173999375,0.06600,
-0.10172000000,0.07800,
-0.10170000000,0.06200,
-0.10167999375,0.07800,
-0.10166000000,0.06400,
-0.10164000000,0.06200,
-0.10161999375,0.07000,
-0.10160000000,0.05800,
-0.10157999375,0.07200,
-0.10155999375,0.05200,
-0.10154000000,0.07200,
-0.10151999375,0.07600,
-0.10150000000,0.05200,
-0.10148000000,0.07200,
-0.10145999375,0.05200,
-0.10144000000,0.08000,
-0.10142000000,0.05600,
-0.10139999375,0.05400,
-0.10138000000,0.06800,
-0.10136000000,0.05600,
-0.10133999375,0.06400,
-0.10132000000,0.06400,
-0.10130000000,0.06800,
-0.10127999375,0.06400,
-0.10126000000,0.06400,
-0.10123999375,0.06600,
-0.10121999375,0.05800,
-0.10120000000,0.05000,
-0.10117999375,0.06000,
-0.10116000000,0.05600,
-0.10114000000,0.05800,
-0.10111999375,0.06800,
-0.10110000000,0.05600,
-0.10108000000,0.07800,
-0.10105999375,0.04800,
-0.10104000000,0.07800,
-0.10102000000,0.07000,
-0.10099999375,0.05600,
-0.10098000000,0.07000,
-0.10095999375,0.05000,
-0.10093999375,0.06800,
-0.10092000000,0.04000,
-0.10089999375,0.06000,
-0.10088000000,0.06400,
-0.10086000000,0.03800,
-0.10083999375,0.05600,
-0.10082000000,0.03800,
-0.10080000000,0.07200,
-0.10077999375,0.04400,
-0.10076000000,0.03800,
-0.10074000000,0.06600,
-0.10071999375,0.04600,
-0.10070000000,0.06000,
-0.10068000000,0.06000,
-0.10065999375,0.06400,
-0.10064000000,0.05800,
-0.10061999375,0.05000,
-0.10059999375,0.06200,
-0.10058000000,0.05400,
-0.10055999375,0.04800,
-0.10054000000,0.05000,
-0.10052000000,0.05400,
-0.10049999375,0.05400,
-0.10048000000,0.05800,
-0.10046000000,0.04600,
-0.10043999375,0.06800,
-0.10042000000,0.04800,
-0.10040000000,0.05600,
-0.10037999375,0.06200,
-0.10036000000,0.03800,
-0.10033999375,0.05800,
-0.10031999375,0.03800,
-0.10030000000,0.06000,
-0.10027999375,0.04600,
-0.10026000000,0.05000,
-0.10024000000,0.06600,
-0.10021999375,0.04000,
-0.10020000000,0.05000,
-0.10018000000,0.04600,
-0.10015999375,0.06200,
-0.10014000000,0.01800,
-0.10012000000,0.00200,
-0.10009999375,0.03000,
-0.10008000000,0.03800,
-0.10006000000,0.01200,
-0.10003999375,0.00200,
-0.10002000000,-0.00200,
-0.09999999375,0.01600,
-0.09997999375,-0.01200,
-0.09996000000,-0.00600,
-0.09993999375,0.02000,
-0.09992000000,0.00,
-0.09990000000,-0.02000,
-0.09987999375,0.00600,
-0.09986000000,0.02000,
-0.09984000000,-0.01800,
-0.09981999375,0.01600,
-0.09980000000,-0.01200,
-0.09978000000,0.02400,
-0.09975999375,-0.01200,
-0.09974000000,0.01000,
-0.09971999375,0.01000,
-0.09969999375,-0.01000,
-0.09968000000,0.01400,
-0.09965999375,0.00600,
-0.09964000000,0.01200,
-0.09962000000,0.00200,
-0.09959999375,0.32000,
-0.09958000000,0.32000,
-0.09956000000,0.16000,
-0.09953999375,0.03400,
-0.09952000000,-0.00800,
-0.09950000000,-0.01400,
-0.09947999375,0.00200,
-0.09946000000,0.01000,
-0.09944000000,-0.00200,
-0.09941999375,0.01800,
-0.09940000000,0.01000,
-0.09937999375,0.00800,
-0.09935999375,0.00600,
-0.09934000000,0.00800,
-0.09931999375,0.01400,
-0.09930000000,0.00,
-0.09928000000,0.00400,
-0.09925999375,0.00,
-0.09924000000,0.00400,
-0.09922000000,0.00400,
-0.09919999375,-0.00400,
-0.09918000000,0.01000,
-0.09916000000,0.00600,
-0.09913999375,-0.00600,
-0.09912000000,0.00600,
-0.09910000000,-0.00400,
-0.09907999375,0.00400,
-0.09906000000,0.00,
-0.09903999375,0.00,
-0.09901999375,0.01200,
-0.09900000000,-0.00200,
-0.09897999375,0.00800,
-0.09896000000,0.00,
-0.09894000000,0.02400,
-0.09891999375,0.00400,
-0.09890000000,-0.00800,
-0.09888000000,0.01200,
-0.09885999375,0.00200,
-0.09884000000,0.01600,
-0.09882000000,-0.00200,
-0.09879999375,0.01200,
-0.09878000000,0.02600,
-0.09875999375,0.00800,
-0.09873999375,0.00800,
-0.09872000000,0.01000,
-0.09869999375,0.00400,
-0.09868000000,0.01400,
-0.09866000000,-0.00200,
-0.09863999375,0.00400,
-0.09862000000,0.00800,
-0.09860000000,0.00,
-0.09857999375,0.01400,
-0.09856000000,-0.00200,
-0.09854000000,0.01800,
-0.09851999375,0.00600,
-0.09850000000,-0.00200,
-0.09848000000,0.01200,
-0.09845999375,-0.00600,
-0.09844000000,0.01600,
-0.09841999375,-0.00600,
-0.09839999375,0.00200,
-0.09838000000,0.02400,
-0.09835999375,-0.00600,
-0.09834000000,0.01400,
-0.09832000000,-0.00200,
-0.09829999375,0.02000,
-0.09828000000,0.01000,
-0.09826000000,0.00,
-0.09823999375,0.02800,
-0.09822000000,0.00400,
-0.09820000000,0.00600,
-0.09817999375,-0.00400,
-0.09816000000,0.00,
-0.09813999375,0.01400,
-0.09811999375,-0.03000,
-0.09810000000,0.02400,
-0.09807999375,-0.00800,
-0.09806000000,0.03000,
-0.09804000000,0.00,
-0.09801999375,-0.00200,
-0.09800000000,0.03600,
-0.09798000000,-0.01800,
-0.09795999375,0.01400,
-0.09794000000,0.01600,
-0.09792000000,-0.01600,
-0.09789999375,0.02000,
-0.09788000000,-0.00600,
-0.09786000000,0.01800,
-0.09783999375,0.00800,
-0.09782000000,-0.01000,
-0.09779999375,0.03000,
-0.09777999375,-0.01400,
-0.09776000000,0.01800,
-0.09773999375,-0.00600,
-0.09772000000,0.00,
-0.09770000000,0.01200,
-0.09767999375,-0.02400,
-0.09766000000,0.03200,
-0.09764000000,-0.00400,
-0.09761999375,0.01400,
-0.09760000000,0.00800,
-0.09758000000,-0.01000,
-0.09755999375,0.02200,
-0.09754000000,-0.01600,
-0.09752000000,0.02000,
-0.09749999375,0.00800,
-0.09748000000,-0.01000,
-0.09745999375,0.01600,
-0.09744000000,-0.01200,
-0.09742000000,0.02400,
-0.09739999375,0.00200,
-0.09738000000,-0.00200,
-0.09736000000,0.01000,
-0.09733999375,-0.02600,
-0.09732000000,0.01600,
-0.09730000000,-0.00400,
-0.09727999375,-0.01000,
-0.09726000000,0.01200,
-0.09724000000,-0.02200,
-0.09721999375,0.02600,
-0.09720000000,-0.01400,
-0.09717999375,0.01600,
-0.09715999375,0.02800,
-0.09714000000,-0.01000,
-0.09711999375,0.02200,
-0.09710000000,-0.00400,
-0.09708000000,0.02400,
-0.09705999375,0.00,
-0.09704000000,-0.00600,
-0.09702000000,0.02000,
-0.09699999375,-0.00800,
-0.09698000000,0.01600,
-0.09696000000,-0.01200,
-0.09693999375,0.00800,
-0.09692000000,0.01600,
-0.09690000000,-0.00800,
-0.09687999375,0.01000,
-0.09686000000,-0.00200,
-0.09683999375,0.00400,
-0.09681999375,0.00400,
-0.09680000000,-0.01000,
-0.09677999375,0.00400,
-0.09676000000,0.00600,
-0.09674000000,0.00,
-0.09671999375,0.00200,
-0.09670000000,-0.00800,
-0.09668000000,0.01200,
-0.09665999375,-0.00400,
-0.09664000000,0.00,
-0.09662000000,0.00400,
-0.09659999375,0.00,
-0.09658000000,0.01000,
-0.09655999375,-0.00400,
-0.09653999375,0.01600,
-0.09652000000,0.01600,
-0.09649999375,0.00800,
-0.09648000000,0.01800,
-0.09646000000,0.00600,
-0.09643999375,0.01400,
-0.09642000000,0.00600,
-0.09640000000,0.00,
-0.09637999375,0.00600,
-0.09636000000,0.00200,
-0.09634000000,-0.00200,
-0.09631999375,-0.00400,
-0.09630000000,0.00400,
-0.09628000000,0.01600,
-0.09625999375,0.00200,
-0.09624000000,0.00800,
-0.09621999375,0.00200,
-0.09619999375,-0.00200,
-0.09618000000,0.01000,
-0.09615999375,-0.00800,
-0.09614000000,0.00800,
-0.09612000000,-0.00800,
-0.09609999375,0.00200,
-0.09608000000,0.01800,
-0.09606000000,-0.00200,
-0.09603999375,0.01000,
-0.09602000000,-0.00400,
-0.09600000000,0.01800,
-0.09597999375,-0.00600,
-0.09596000000,-0.00600,
-0.09593999375,0.01200,
-0.09591999375,-0.00600,
-0.09590000000,0.02000,
-0.09587999375,-0.00600,
-0.09586000000,0.01400,
-0.09584000000,0.01000,
-0.09581999375,0.00200,
-0.09580000000,0.01400,
-0.09578000000,0.00600,
-0.09575999375,0.00200,
-0.09574000000,-0.00400,
-0.09572000000,-0.00200,
-0.09569999375,-0.00400,
-0.09568000000,0.00200,
-0.09566000000,0.00600,
-0.09563999375,0.01400,
-0.09562000000,0.01800,
-0.09559999375,0.01000,
-0.09557999375,0.01000,
-0.09556000000,-0.00600,
-0.09553999375,0.01000,
-0.09552000000,-0.01000,
-0.09550000000,0.01400,
-0.09547999375,-0.00200,
-0.09546000000,0.00400,
-0.09544000000,0.01400,
-0.09541999375,-0.00400,
-0.09540000000,0.00600,
-0.09538000000,0.00,
-0.09535999375,0.02400,
-0.09534000000,-0.00200,
-0.09532000000,-0.01400,
-0.09529999375,0.01600,
-0.09528000000,-0.00200,
-0.09525999375,0.01600,
-0.09524000000,-0.01000,
-0.09522000000,0.01000,
-0.09519999375,0.01800,
-0.09518000000,0.00200,
-0.09516000000,0.00800,
-0.09513999375,0.01000,
-0.09512000000,0.00400,
-0.09510000000,0.00400,
-0.09507999375,0.00600,
-0.09506000000,0.00,
-0.09504000000,0.00400,
-0.09501999375,0.00200,
-0.09500000000,0.01200,
-0.09497999375,0.01000,
-0.09495999375,0.00600,
-0.09494000000,0.01200,
-0.09491999375,0.00200,
-0.09490000000,0.00800,
-0.09488000000,-0.00200,
-0.09485999375,0.01400,
-0.09484000000,0.00400,
-0.09482000000,0.00,
-0.09479999375,0.01400,
-0.09478000000,0.00200,
-0.09476000000,0.01000,
-0.09473999375,0.00400,
-0.09472000000,0.02000,
-0.09470000000,0.00200,
-0.09467999375,-0.00400,
-0.09466000000,0.01400,
-0.09463999375,0.00200,
-0.09461999375,0.01200,
-0.09460000000,-0.00200,
-0.09457999375,0.01600,
-0.09456000000,0.02200,
-0.09454000000,0.00200,
-0.09451999375,0.01200,
-0.09450000000,0.00600,
-0.09448000000,0.01800,
-0.09445999375,0.00800,
-0.09444000000,0.01200,
-0.09442000000,0.00800,
-0.09439999375,0.00600,
-0.09438000000,0.01000,
-0.09435999375,0.01600,
-0.09433999375,0.01600,
-0.09432000000,0.00800,
-0.09429999375,0.01400,
-0.09428000000,0.01000,
-0.09426000000,0.01000,
-0.09423999375,0.01000,
-0.09422000000,0.01200,
-0.09420000000,0.01200,
-0.09417999375,0.01000,
-0.09416000000,0.01400,
-0.09414000000,0.00800,
-0.09411999375,0.01600,
-0.09410000000,0.01200,
-0.09408000000,0.01600,
-0.09405999375,0.00800,
-0.09404000000,0.00600,
-0.09401999375,0.01400,
-0.09399999375,0.01200,
-0.09398000000,0.02200,
-0.09395999375,0.00800,
-0.09394000000,0.01800,
-0.09392000000,0.01400,
-0.09389999375,0.01000,
-0.09388000000,0.01600,
-0.09386000000,0.00800,
-0.09383999375,0.01400,
-0.09382000000,0.00800,
-0.09380000000,0.00800,
-0.09377999375,0.01400,
-0.09376000000,0.01200,
-0.09374000000,0.01600,
-0.09371999375,0.01600,
-0.09370000000,0.01800,
-0.09367999375,0.01200,
-0.09366000000,0.01800,
-0.09364000000,0.02200,
-0.09361999375,0.01600,
-0.09360000000,0.02000,
-0.09358000000,0.02000,
-0.09355999375,0.01600,
-0.09354000000,0.02600,
-0.09352000000,0.02000,
-0.09349999375,0.02600,
-0.09348000000,0.02600,
-0.09346000000,0.02400,
-0.09343999375,0.02600,
-0.09342000000,0.02600,
-0.09339999375,0.02600,
-0.09337999375,0.02800,
-0.09336000000,0.03400,
-0.09333999375,0.03800,
-0.09332000000,0.03000,
-0.09330000000,0.04000,
-0.09327999375,0.03600,
-0.09326000000,0.04200,
-0.09324000000,0.04800,
-0.09321999375,0.03400,
-0.09320000000,0.04600,
-0.09318000000,0.04800,
-0.09315999375,0.04800,
-0.09314000000,0.05400,
-0.09312000000,0.05000,
-0.09309999375,0.05600,
-0.09308000000,0.05400,
-0.09305999375,0.05000,
-0.09304000000,0.05400,
-0.09302000000,0.05000,
-0.09299999375,0.06600,
-0.09298000000,0.04200,
-0.09296000000,0.05200,
-0.09293999375,0.06000,
-0.09292000000,0.04600,
-0.09290000000,0.07000,
-0.09287999375,0.04600,
-0.09286000000,0.06400,
-0.09284000000,0.06000,
-0.09281999375,0.04200,
-0.09280000000,0.06800,
-0.09277999375,0.04600,
-0.09275999375,0.06200,
-0.09274000000,0.03800,
-0.09271999375,0.04200,
-0.09270000000,0.04600,
-0.09268000000,0.02400,
-0.09265999375,0.04200,
-0.09264000000,0.03400,
-0.09262000000,0.05000,
-0.09259999375,0.06000,
-0.09258000000,0.06200,
-0.09256000000,0.10600,
-0.09253999375,0.10200,
-0.09252000000,0.11600,
-0.09250000000,0.12400,
-0.09247999375,0.12400,
-0.09246000000,0.13400,
-0.09243999375,0.11800,
-0.09241999375,0.11400,
-0.09240000000,0.10600,
-0.09237999375,0.09000,
-0.09236000000,0.11000,
-0.09234000000,0.08800,
-0.09231999375,0.09400,
-0.09230000000,0.09200,
-0.09228000000,0.08200,
-0.09225999375,0.10000,
-0.09224000000,0.07200,
-0.09222000000,0.10000,
-0.09219999375,0.09400,
-0.09218000000,0.09200,
-0.09216000000,0.11200,
-0.09213999375,0.09200,
-0.09212000000,0.12800,
-0.09209999375,0.10400,
-0.09208000000,0.12000,
-0.09206000000,0.13200,
-0.09203999375,0.10400,
-0.09202000000,0.13000,
-0.09200000000,0.12200,
-0.09197999375,0.14200,
-0.09196000000,0.14200,
-0.09194000000,0.13200,
-0.09191999375,0.16400,
-0.09190000000,0.13200,
-0.09188000000,0.15200,
-0.09185999375,0.15600,
-0.09184000000,0.14800,
-0.09181999375,0.16400,
-0.09179999375,0.14000,
-0.09178000000,0.17000,
-0.09175999375,0.15000,
-0.09174000000,0.14400,
-0.09172000000,0.17000,
-0.09169999375,0.15200,
-0.09168000000,0.16800,
-0.09166000000,0.14000,
-0.09163999375,0.15600,
-0.09162000000,0.16200,
-0.09160000000,0.14000,
-0.09157999375,0.16600,
-0.09156000000,0.15000,
-0.09154000000,0.16400,
-0.09151999375,0.15000,
-0.09150000000,0.14600,
-0.09147999375,0.17200,
-0.09146000000,0.15000,
-0.09144000000,0.16400,
-0.09141999375,0.14800,
-0.09140000000,0.15600,
-0.09138000000,0.15800,
-0.09135999375,0.14600,
-0.09134000000,0.16000,
-0.09132000000,0.14600,
-0.09129999375,0.14000,
-0.09128000000,0.15000,
-0.09126000000,0.13400,
-0.09123999375,0.15200,
-0.09122000000,0.14600,
-0.09119999375,0.13400,
-0.09117999375,0.15000,
-0.09116000000,0.14200,
-0.09113999375,0.15000,
-0.09112000000,0.14200,
-0.09110000000,0.13800,
-0.09107999375,0.14600,
-0.09106000000,0.13600,
-0.09104000000,0.13800,
-0.09101999375,0.12600,
-0.09100000000,0.32000,
-0.09098000000,0.32000,
-0.09095999375,0.10400,
-0.09094000000,0.06800,
-0.09092000000,0.07400,
-0.09089999375,0.09600,
-0.09088000000,0.09000,
-0.09085999375,0.08600,
-0.09084000000,0.09000,
-0.09082000000,0.08200,
-0.09079999375,0.08800,
-0.09078000000,0.08600,
-0.09076000000,0.08800,
-0.09073999375,0.08800,
-0.09072000000,0.08000,
-0.09070000000,0.08600,
-0.09067999375,0.08200,
-0.09066000000,0.06400,
-0.09064000000,0.03000,
-0.09061999375,0.00800,
-0.09060000000,0.01400,
-0.09057999375,0.00400,
-0.09055999375,0.01000,
-0.09054000000,0.01400,
-0.09051999375,0.01400,
-0.09050000000,0.02000,
-0.09048000000,0.02200,
-0.09045999375,0.03800,
-0.09044000000,0.04200,
-0.09042000000,0.05400,
-0.09039999375,0.07000,
-0.09038000000,0.07200,
-0.09036000000,0.09200,
-0.09033999375,0.08600,
-0.09032000000,0.09800,
-0.09030000000,0.10200,
-0.09027999375,0.10600,
-0.09026000000,0.11200,
-0.09023999375,0.12000,
-0.09021999375,0.12000,
-0.09020000000,0.12800,
-0.09017999375,0.13400,
-0.09016000000,0.13600,
-0.09014000000,0.14000,
-0.09011999375,0.13800,
-0.09010000000,0.13800,
-0.09008000000,0.12600,
-0.09005999375,0.13800,
-0.09004000000,0.12800,
-0.09002000000,0.11600,
-0.08999999375,0.11800,
-0.08998000000,0.09400,
-0.08996000000,0.10000,
-0.08993999375,0.06800,
-0.08992000000,0.06600,
-0.08989999375,0.05600,
-0.08988000000,0.04200,
-0.08986000000,0.06400,
-0.08983999375,0.06600,
-0.08982000000,0.11000,
-0.08980000000,0.12200,
-0.08977999375,0.16600,
-0.08976000000,0.19200,
-0.08974000000,0.17800,
-0.08971999375,0.19600,
-0.08970000000,0.18000,
-0.08968000000,0.19600,
-0.08965999375,0.16600,
-0.08964000000,0.15200,
-0.08961999375,0.15800,
-0.08959999375,0.13600,
-0.08958000000,0.13000,
-0.08955999375,0.12000,
-0.08954000000,0.11400,
-0.08952000000,0.10600,
-0.08949999375,0.10200,
-0.08948000000,0.10400,
-0.08946000000,0.11000,
-0.08943999375,0.11000,
-0.08942000000,0.12600,
-0.08940000000,0.13000,
-0.08937999375,0.13200,
-0.08936000000,0.14400,
-0.08934000000,0.14600,
-0.08931999375,0.16800,
-0.08930000000,0.15200,
-0.08927999375,0.16600,
-0.08926000000,0.17000,
-0.08924000000,0.14600,
-0.08921999375,0.16600,
-0.08920000000,0.15400,
-0.08918000000,0.17000,
-0.08915999375,0.15400,
-0.08914000000,0.17000,
-0.08912000000,0.17800,
-0.08909999375,0.15400,
-0.08908000000,0.17000,
-0.08906000000,0.16000,
-0.08903999375,0.18600,
-0.08902000000,0.15600,
-0.08899999375,0.15000,
-0.08897999375,0.18200,
-0.08896000000,0.16600,
-0.08893999375,0.18000,
-0.08892000000,0.16400,
-0.08890000000,0.18000,
-0.08887999375,0.17000,
-0.08886000000,0.16800,
-0.08884000000,0.18000,
-0.08881999375,0.17400,
-0.08880000000,0.17200,
-0.08878000000,0.16200,
-0.08875999375,0.17600,
-0.08874000000,0.17200,
-0.08872000000,0.16800,
-0.08869999375,0.17000,
-0.08868000000,0.17200,
-0.08865999375,0.17000,
-0.08864000000,0.16400,
-0.08862000000,0.16400,
-0.08859999375,0.15200,
-0.08858000000,0.15800,
-0.08856000000,0.14800,
-0.08853999375,0.15600,
-0.08852000000,0.14000,
-0.08850000000,0.15000,
-0.08847999375,0.15200,
-0.08846000000,0.13600,
-0.08844000000,0.14000,
-0.08841999375,0.12400,
-0.08840000000,0.14600,
-0.08838000000,0.12600,
-0.08835999375,0.12400,
-0.08834000000,0.14200,
-0.08831999375,0.13200,
-0.08830000000,0.14800,
-0.08828000000,0.13000,
-0.08825999375,0.14600,
-0.08824000000,0.14200,
-0.08822000000,0.13200,
-0.08819999375,0.14000,
-0.08818000000,0.12600,
-0.08816000000,0.12600,
-0.08813999375,0.11400,
-0.08812000000,0.12400,
-0.08810000000,0.11600,
-0.08807999375,0.10600,
-0.08806000000,0.11600,
-0.08803999375,0.11200,
-0.08802000000,0.11400,
-0.08800000000,0.10800,
-0.08797999375,0.10600,
-0.08796000000,0.11000,
-0.08794000000,0.10200,
-0.08791999375,0.10000,
-0.08790000000,0.10400,
-0.08788000000,0.10200,
-0.08785999375,0.11000,
-0.08784000000,0.10800,
-0.08782000000,0.10600,
-0.08779999375,0.10600,
-0.08778000000,0.09800,
-0.08776000000,0.11800,
-0.08773999375,0.10200,
-0.08772000000,0.10800,
-0.08769999375,0.10400,
-0.08768000000,0.09800,
-0.08766000000,0.11800,
-0.08763999375,0.10200,
-0.08762000000,0.10400,
-0.08760000000,0.10200,
-0.08757999375,0.09400,
-0.08756000000,0.10600,
-0.08754000000,0.09400,
-0.08751999375,0.09800,
-0.08750000000,0.09800,
-0.08748000000,0.09600,
-0.08745999375,0.09400,
-0.08744000000,0.08400,
-0.08741999375,0.09200,
-0.08739999375,0.08400,
-0.08738000000,0.08200,
-0.08735999375,0.08400,
-0.08734000000,0.06800,
-0.08732000000,0.08000,
-0.08729999375,0.05600,
-0.08728000000,0.05200,
-0.08726000000,0.06000,
-0.08723999375,0.04800,
-0.08722000000,0.04600,
-0.08720000000,0.03600,
-0.08717999375,0.03600,
-0.08716000000,0.02400,
-0.08714000000,0.01600,
-0.08711999375,0.02200,
-0.08710000000,0.01400,
-0.08707999375,0.02400,
-0.08706000000,0.01800,
-0.08704000000,0.03200,
-0.08701999375,0.04200,
-0.08700000000,0.03000,
-0.08698000000,0.04200,
-0.08695999375,0.03600,
-0.08694000000,0.03400,
-0.08692000000,0.03000,
-0.08689999375,0.01600,
-0.08688000000,0.02000,
-0.08686000000,0.01000,
-0.08683999375,0.01400,
-0.08682000000,0.01200,
-0.08679999375,0.01400,
-0.08677999375,0.02000,
-0.08676000000,0.01200,
-0.08673999375,0.02000,
-0.08672000000,0.02000,
-0.08670000000,0.01200,
-0.08667999375,0.02600,
-0.08666000000,0.01200,
-0.08664000000,0.01600,
-0.08661999375,0.02000,
-0.08660000000,0.01000,
-0.08658000000,0.02000,
-0.08655999375,0.01000,
-0.08654000000,0.02400,
-0.08652000000,0.01200,
-0.08649999375,0.00600,
-0.08648000000,0.02000,
-0.08645999375,0.00600,
-0.08644000000,0.01800,
-0.08642000000,0.00,
-0.08639999375,0.01400,
-0.08638000000,0.01000,
-0.08636000000,0.00800,
-0.08633999375,0.01600,
-0.08632000000,0.00600,
-0.08630000000,0.02000,
-0.08627999375,0.01200,
-0.08626000000,0.01000,
-0.08624000000,0.02400,
-0.08621999375,0.00400,
-0.08620000000,0.01400,
-0.08618000000,0.01200,
-0.08615999375,0.02600,
-0.08614000000,0.01400,
-0.08611999375,0.00200,
-0.08610000000,0.03800,
-0.08608000000,0.01000,
-0.08605999375,0.03400,
-0.08604000000,0.02200,
-0.08602000000,0.01400,
-0.08599999375,0.02400,
-0.08598000000,0.00600,
-0.08596000000,0.03200,
-0.08593999375,0.01400,
-0.08592000000,0.02600,
-0.08590000000,0.02200,
-0.08587999375,0.01000,
-0.08586000000,0.02800,
-0.08583999375,0.02200,
-0.08582000000,0.01800,
-0.08580000000,0.10000,
-0.08577999375,0.00400,
-0.08576000000,0.04400,
-0.08574000000,0.01200,
-0.08571999375,0.03400,
-0.08570000000,0.02000,
-0.08568000000,0.01400,
-0.08565999375,0.10600,
-0.08564000000,0.01400,
-0.08562000000,0.08200,
-0.08559999375,0.01600,
-0.08558000000,0.08000,
-0.08556000000,0.02000,
-0.08553999375,0.08800,
-0.08552000000,0.02400,
-0.08549999375,0.10000,
-0.08548000000,0.02400,
-0.08546000000,0.09600,
-0.08543999375,0.03400,
-0.08542000000,0.09600,
-0.08540000000,0.02600,
-0.08537999375,0.01800,
-0.08536000000,0.12000,
-0.08534000000,0.06200,
-0.08531999375,0.08400,
-0.08530000000,0.06800,
-0.08528000000,0.06000,
-0.08525999375,0.07800,
-0.08524000000,0.06000,
-0.08521999375,0.07600,
-0.08519999375,0.05600,
-0.08518000000,0.07600,
-0.08515999375,0.08000,
-0.08514000000,0.05800,
-0.08512000000,0.07800,
-0.08509999375,0.05600,
-0.08508000000,0.07600,
-0.08506000000,0.07400,
-0.08503999375,0.05200,
-0.08502000000,0.07800,
-0.08500000000,0.06200,
-0.08497999375,0.06600,
-0.08496000000,0.06800,
-0.08494000000,0.05800,
-0.08491999375,0.07400,
-0.08490000000,0.05800,
-0.08487999375,0.07200,
-0.08486000000,0.06200,
-0.08484000000,0.05600,
-0.08481999375,0.07000,
-0.08480000000,0.05800,
-0.08478000000,0.07200,
-0.08475999375,0.05800,
-0.08474000000,0.06200,
-0.08472000000,0.07000,
-0.08469999375,0.05600,
-0.08468000000,0.06800,
-0.08466000000,0.05600,
-0.08463999375,0.06200,
-0.08462000000,0.06200,
-0.08460000000,0.06400,
-0.08457999375,0.06000,
-0.08456000000,0.05400,
-0.08453999375,0.06200,
-0.08452000000,0.06600,
-0.08450000000,0.06800,
-0.08447999375,0.06400,
-0.08446000000,0.06600,
-0.08444000000,0.06600,
-0.08441999375,0.06600,
-0.08440000000,0.05800,
-0.08438000000,0.06600,
-0.08435999375,0.06200,
-0.08434000000,0.06400,
-0.08432000000,0.07200,
-0.08429999375,0.05800,
-0.08428000000,0.07200,
-0.08425999375,0.04800,
-0.08424000000,0.06000,
-0.08422000000,0.05400,
-0.08419999375,0.03600,
-0.08418000000,0.05600,
-0.08416000000,0.04200,
-0.08413999375,0.05400,
-0.08412000000,0.05000,
-0.08410000000,0.05800,
-0.08407999375,0.06800,
-0.08406000000,0.04200,
-0.08404000000,0.05600,
-0.08401999375,0.05000,
-0.08400000000,0.06200,
-0.08398000000,0.05000,
-0.08395999375,0.06400,
-0.08394000000,0.05000,
-0.08391999375,0.05400,
-0.08390000000,0.06000,
-0.08388000000,0.05600,
-0.08385999375,0.07000,
-0.08384000000,0.04800,
-0.08382000000,0.05200,
-0.08379999375,0.06200,
-0.08378000000,0.05000,
-0.08376000000,0.05800,
-0.08373999375,0.03600,
-0.08372000000,0.06000,
-0.08370000000,0.04800,
-0.08367999375,0.06200,
-0.08366000000,0.05400,
-0.08363999375,0.05200,
-0.08362000000,0.04200,
-0.08360000000,0.05200,
-0.08357999375,0.05000,
-0.08356000000,0.04200,
-0.08354000000,0.06000,
-0.08351999375,0.03400,
-0.08350000000,0.01800,
-0.08348000000,0.04200,
-0.08345999375,0.00200,
-0.08344000000,0.00400,
-0.08342000000,0.05800,
-0.08339999375,-0.00600,
-0.08338000000,0.02800,
-0.08336000000,0.00200,
-0.08333999375,0.03600,
-0.08332000000,-0.00800,
-0.08329999375,-0.00400,
-0.08328000000,-0.01200,
-0.08326000000,-0.00400,
-0.08323999375,-0.02000,
-0.08322000000,0.00200,
-0.08320000000,-0.02200,
-0.08317999375,-0.01200,
-0.08316000000,0.02600,
-0.08314000000,-0.01400,
-0.08311999375,0.02000,
-0.08310000000,-0.02200,
-0.08308000000,0.02400,
-0.08305999375,0.00200,
-0.08304000000,-0.01000,
-0.08301999375,0.02600,
-0.08299999375,-0.00200,
-0.08298000000,0.01200,
-0.08295999375,-0.01000,
-0.08294000000,0.00800,
-0.08292000000,0.32000,
-0.08289999375,0.32000,
-0.08288000000,0.17400,
-0.08286000000,0.01400,
-0.08283999375,-0.02800,
-0.08282000000,0.01200,
-0.08280000000,0.02000,
-0.08277999375,-0.00600,
-0.08276000000,0.01200,
-0.08274000000,-0.01400,
-0.08271999375,0.01000,
-0.08270000000,-0.00800,
-0.08267999375,0.00400,
-0.08266000000,0.01800,
-0.08264000000,-0.00600,
-0.08261999375,0.00800,
-0.08260000000,-0.00200,
-0.08258000000,0.01800,
-0.08255999375,-0.00200,
-0.08254000000,-0.00400,
-0.08252000000,0.01600,
-0.08249999375,-0.00200,
-0.08248000000,0.02000,
-0.08246000000,-0.00400,
-0.08243999375,0.00800,
-0.08242000000,0.00600,
-0.08240000000,0.00400,
-0.08237999375,0.01000,
-0.08236000000,0.00400,
-0.08233999375,0.00200,
-0.08232000000,0.00,
-0.08230000000,0.00400,
-0.08227999375,-0.00200,
-0.08226000000,0.00,
-0.08224000000,0.00800,
-0.08221999375,0.01400,
-0.08220000000,0.01000,
-0.08218000000,0.00600,
-0.08215999375,0.00800,
-0.08214000000,0.00200,
-0.08212000000,0.00600,
-0.08209999375,-0.00400,
-0.08208000000,0.00600,
-0.08205999375,-0.00200,
-0.08204000000,0.00600,
-0.08202000000,0.01200,
-0.08199999375,0.00200,
-0.08198000000,0.01000,
-0.08196000000,-0.00400,
-0.08193999375,0.01000,
-0.08192000000,0.00400,
-0.08190000000,0.02400,
-0.08187999375,0.01000,
-0.08186000000,0.00400,
-0.08184000000,0.01400,
-0.08181999375,0.00600,
-0.08180000000,0.00200,
-0.08178000000,0.00400,
-0.08175999375,-0.00400,
-0.08174000000,0.01000,
-0.08171999375,0.00,
-0.08170000000,-0.00800,
-0.08168000000,0.00800,
-0.08165999375,0.00,
-0.08164000000,0.00600,
-0.08162000000,0.00400,
-0.08159999375,0.01200,
-0.08158000000,0.01800,
-0.08156000000,0.00600,
-0.08153999375,0.00800,
-0.08152000000,-0.00200,
-0.08150000000,0.00600,
-0.08147999375,-0.00400,
-0.08146000000,0.00800,
-0.08143999375,0.02800,
-0.08142000000,-0.00400,
-0.08140000000,0.02000,
-0.08137999375,0.00200,
-0.08136000000,0.02200,
-0.08134000000,0.00400,
-0.08131999375,-0.01400,
-0.08130000000,0.01800,
-0.08128000000,-0.00200,
-0.08125999375,0.01400,
-0.08124000000,-0.00200,
-0.08122000000,0.00,
-0.08119999375,0.02000,
-0.08118000000,-0.00600,
-0.08116000000,0.00400,
-0.08113999375,0.01000,
-0.08112000000,0.00600,
-0.08109999375,0.01400,
-0.08108000000,-0.01400,
-0.08106000000,0.02000,
-0.08103999375,0.00400,
-0.08102000000,-0.00200,
-0.08100000000,0.00200,
-0.08097999375,-0.01600,
-0.08096000000,0.00800,
-0.08094000000,-0.00800,
-0.08091999375,0.00400,
-0.08090000000,0.01000,
-0.08088000000,-0.01600,
-0.08085999375,0.02800,
-0.08084000000,-0.01600,
-0.08082000000,0.02200,
-0.08079999375,0.01200,
-0.08078000000,-0.01000,
-0.08075999375,0.02400,
-0.08074000000,-0.02000,
-0.08072000000,0.02800,
-0.08069999375,-0.00400,
-0.08068000000,-0.01200,
-0.08066000000,0.01800,
-0.08063999375,-0.01000,
-0.08062000000,0.03600,
-0.08060000000,-0.01600,
-0.08057999375,0.01600,
-0.08056000000,0.01400,
-0.08054000000,-0.03400,
-0.08051999375,0.02600,
-0.08050000000,-0.00800,
-0.08047999375,0.02600,
-0.08046000000,0.00,
-0.08044000000,-0.01400,
-0.08041999375,0.02800,
-0.08040000000,-0.02200,
-0.08038000000,0.01400,
-0.08035999375,0.00600,
-0.08034000000,-0.02400,
-0.08032000000,0.01200,
-0.08029999375,-0.02600,
-0.08028000000,0.03800,
-0.08026000000,-0.00200,
-0.08023999375,-0.01200,
-0.08022000000,0.02600,
-0.08020000000,-0.01800,
-0.08017999375,0.02400,
-0.08016000000,-0.00400,
-0.08013999375,0.00200,
-0.08012000000,0.02000,
-0.08010000000,-0.02200,
-0.08007999375,0.02400,
-0.08006000000,0.00,
-0.08004000000,0.00800,
-0.08001999375,0.01000,
-0.08000000000,-0.00400,
-0.07998000000,0.02600,
-0.07995999375,-0.00600,
-0.07994000000,0.00400,
-0.07992000000,0.00600,
-0.07989999375,-0.01200,
-0.07988000000,0.02000,
-0.07985999375,-0.01200,
-0.07984000000,0.00200,
-0.07982000000,0.00800,
-0.07979999375,-0.01600,
-0.07978000000,0.01600,
-0.07976000000,-0.01200,
-0.07973999375,0.01200,
-0.07972000000,0.02200,
-0.07970000000,-0.01200,
-0.07967999375,0.01400,
-0.07966000000,-0.00600,
-0.07964000000,0.02600,
-0.07961999375,0.00200,
-0.07960000000,-0.00800,
-0.07958000000,0.01400,
-0.07955999375,-0.00800,
-0.07954000000,0.02000,
-0.07951999375,-0.00800,
-0.07950000000,0.00600,
-0.07948000000,0.01800,
-0.07945999375,-0.01400,
-0.07944000000,0.01200,
-0.07942000000,0.00400,
-0.07939999375,0.00400,
-0.07938000000,0.00200,
-0.07936000000,-0.00200,
-0.07933999375,0.01000,
-0.07932000000,-0.00400,
-0.07930000000,0.00400,
-0.07927999375,0.00400,
-0.07926000000,0.00400,
-0.07923999375,0.01000,
-0.07922000000,-0.01000,
-0.07920000000,0.00400,
-0.07917999375,0.00400,
-0.07916000000,0.00,
-0.07914000000,0.01200,
-0.07911999375,-0.01000,
-0.07910000000,0.01400,
-0.07908000000,0.01400,
-0.07905999375,0.00400,
-0.07904000000,0.01400,
-0.07902000000,0.00200,
-0.07899999375,0.01200,
-0.07898000000,0.00200,
-0.07896000000,-0.00800,
-0.07893999375,0.00200,
-0.07892000000,0.00200,
-0.07889999375,0.00200,
-0.07888000000,0.00,
-0.07886000000,0.00,
-0.07883999375,0.01400,
-0.07882000000,0.00400,
-0.07880000000,0.00400,
-0.07877999375,0.00600,
-0.07876000000,-0.00400,
-0.07874000000,0.00400,
-0.07871999375,-0.00400,
-0.07870000000,0.00600,
-0.07868000000,0.00,
-0.07865999375,0.00600,
-0.07864000000,0.01400,
-0.07862000000,0.00400,
-0.07859999375,0.00400,
-0.07858000000,0.00,
-0.07855999375,0.01400,
-0.07854000000,0.00200,
-0.07852000000,-0.00200,
-0.07849999375,0.01000,
-0.07848000000,0.00400,
-0.07846000000,0.01000,
-0.07843999375,0.00,
-0.07842000000,0.01000,
-0.07840000000,0.00200,
-0.07837999375,0.00600,
-0.07836000000,0.00800,
-0.07834000000,0.00400,
-0.07831999375,0.00400,
-0.07830000000,-0.00400,
-0.07827999375,0.00600,
-0.07826000000,0.00800,
-0.07824000000,0.00400,
-0.07821999375,0.00600,
-0.07820000000,0.01200,
-0.07818000000,0.00800,
-0.07815999375,0.00600,
-0.07814000000,0.00800,
-0.07812000000,-0.00200,
-0.07809999375,0.01000,
-0.07808000000,0.00200,
-0.07806000000,0.01000,
-0.07803999375,0.00,
-0.07802000000,0.01200,
-0.07800000000,0.01800,
-0.07797999375,0.00800,
-0.07796000000,0.00800,
-0.07793999375,0.00400,
-0.07792000000,0.01400,
-0.07790000000,0.00400,
-0.07787999375,-0.00200,
-0.07786000000,0.01800,
-0.07784000000,0.00800,
-0.07781999375,0.01400,
-0.07780000000,-0.00200,
-0.07778000000,0.02200,
-0.07775999375,0.01000,
-0.07774000000,0.01000,
-0.07772000000,0.01600,
-0.07769999375,0.00800,
-0.07768000000,0.01000,
-0.07765999375,0.00,
-0.07764000000,0.01600,
-0.07762000000,0.01800,
-0.07759999375,0.00200,
-0.07758000000,0.01200,
-0.07756000000,0.00800,
-0.07753999375,0.02800,
-0.07752000000,0.01000,
-0.07750000000,0.00800,
-0.07747999375,0.01200,
-0.07746000000,0.00800,
-0.07744000000,0.00800,
-0.07741999375,0.02000,
-0.07740000000,0.01000,
-0.07738000000,0.01800,
-0.07735999375,0.01800,
-0.07734000000,0.01000,
-0.07731999375,0.01400,
-0.07730000000,0.00600,
-0.07728000000,0.01600,
-0.07725999375,0.01000,
-0.07724000000,0.00400,
-0.07722000000,0.01800,
-0.07719999375,0.00800,
-0.07718000000,0.02400,
-0.07716000000,0.00400,
-0.07713999375,0.02600,
-0.07712000000,0.01800,
-0.07710000000,0.00600,
-0.07707999375,0.01800,
-0.07706000000,0.01200,
-0.07704000000,0.01400,
-0.07702000000,0.00800,
-0.07700000000,0.02200,
-0.07697999375,0.02200,
-0.07696000000,0.01000,
-0.07694000000,0.02000,
-0.07691999375,0.01600,
-0.07690000000,0.03200,
-0.07688000000,0.01600,
-0.07685999375,0.01400,
-0.07684000000,0.02200,
-0.07682000000,0.02000,
-0.07679999375,0.02200,
-0.07678000000,0.02600,
-0.07676000000,0.02600,
-0.07673999375,0.03000,
-0.07672000000,0.03200,
-0.07669999375,0.03400,
-0.07668000000,0.02800,
-0.07666000000,0.03000,
-0.07663999375,0.03600,
-0.07662000000,0.03400,
-0.07660000000,0.03200,
-0.07657999375,0.04000,
-0.07656000000,0.03800,
-0.07654000000,0.05800,
-0.07651999375,0.04600,
-0.07650000000,0.05600,
-0.07648000000,0.05200,
-0.07645999375,0.04200,
-0.07644000000,0.05600,
-0.07642000000,0.04600,
-0.07640000000,0.05400,
-0.07638000000,0.04600,
-0.07635999375,0.05200,
-0.07634000000,0.05400,
-0.07632000000,0.05000,
-0.07629999375,0.05600,
-0.07628000000,0.05200,
-0.07626000000,0.05600,
-0.07623999375,0.04800,
-0.07622000000,0.05200,
-0.07620000000,0.05800,
-0.07617999375,0.05600,
-0.07616000000,0.06000,
-0.07614000000,0.06400,
-0.07611999375,0.06000,
-0.07610000000,0.05600,
-0.07607999375,0.05200,
-0.07606000000,0.05400,
-0.07604000000,0.04000,
-0.07601999375,0.03600,
-0.07600000000,0.03400,
-0.07598000000,0.03400,
-0.07595999375,0.03800,
-0.07594000000,0.04400,
-0.07592000000,0.06600,
-0.07589999375,0.08400,
-0.07588000000,0.08400,
-0.07586000000,0.10600,
-0.07583999375,0.11200,
-0.07582000000,0.12400,
-0.07580000000,0.12800,
-0.07577999375,0.11800,
-0.07576000000,0.12000,
-0.07573999375,0.11200,
-0.07572000000,0.11000,
-0.07570000000,0.10400,
-0.07567999375,0.09800,
-0.07566000000,0.09800,
-0.07564000000,0.08600,
-0.07561999375,0.09200,
-0.07560000000,0.08800,
-0.07558000000,0.09000,
-0.07555999375,0.09600,
-0.07554000000,0.08600,
-0.07552000000,0.10200,
-0.07549999375,0.10600,
-0.07548000000,0.09600,
-0.07545999375,0.11400,
-0.07544000000,0.10600,
-0.07542000000,0.12200,
-0.07539999375,0.10800,
-0.07538000000,0.11200,
-0.07536000000,0.12800,
-0.07533999375,0.12600,
-0.07532000000,0.13800,
-0.07530000000,0.11200,
-0.07527999375,0.14200,
-0.07526000000,0.14200,
-0.07524000000,0.13000,
-0.07521999375,0.15400,
-0.07520000000,0.14000,
-0.07518000000,0.16000,
-0.07515999375,0.14600,
-0.07514000000,0.15000,
-0.07511999375,0.17600,
-0.07510000000,0.14600,
-0.07508000000,0.16200,
-0.07505999375,0.14400,
-0.07504000000,0.16000,
-0.07502000000,0.15800,
-0.07499999375,0.14800,
-0.07498000000,0.17800,
-0.07496000000,0.15200,
-0.07493999375,0.15600,
-0.07492000000,0.16000,
-0.07490000000,0.14600,
-0.07487999375,0.17200,
-0.07486000000,0.15000,
-0.07484000000,0.15600,
-0.07482000000,0.16000,
-0.07480000000,0.14200,
-0.07477999375,0.16600,
-0.07476000000,0.14800,
-0.07474000000,0.16200,
-0.07471999375,0.15800,
-0.07470000000,0.14600,
-0.07468000000,0.17000,
-0.07465999375,0.12800,
-0.07464000000,0.15600,
-0.07462000000,0.14600,
-0.07459999375,0.14000,
-0.07458000000,0.14800,
-0.07456000000,0.12600,
-0.07453999375,0.15400,
-0.07452000000,0.13400,
-0.07449999375,0.14000,
-0.07448000000,0.15000,
-0.07446000000,0.12800,
-0.07443999375,0.15000,
-0.07442000000,0.13600,
-0.07440000000,0.13600,
-0.07437999375,0.14400,
-0.07436000000,0.12600,
-0.07434000000,0.15800,
-0.07431999375,-0.18800,
-0.07430000000,0.31800,
-0.07428000000,0.16000,
-0.07425999375,0.08200,
-0.07424000000,0.09400,
-0.07422000000,0.07400,
-0.07420000000,0.09800,
-0.07418000000,0.09200,
-0.07415999375,0.07400,
-0.07414000000,0.09600,
-0.07412000000,0.08000,
-0.07409999375,0.09000,
-0.07408000000,0.07400,
-0.07406000000,0.08400,
-0.07403999375,0.09400,
-0.07402000000,0.07400,
-0.07400000000,0.09200,
-0.07397999375,0.04200,
-0.07396000000,0.02400,
-0.07394000000,0.00400,
-0.07391999375,-0.00400,
-0.07390000000,0.01800,
-0.07387999375,0.00800,
-0.07386000000,0.00800,
-0.07384000000,0.01400,
-0.07381999375,0.02000,
-0.07380000000,0.04000,
-0.07378000000,0.04400,
-0.07375999375,0.05200,
-0.07374000000,0.06000,
-0.07372000000,0.07200,
-0.07369999375,0.08600,
-0.07368000000,0.08400,
-0.07366000000,0.10200,
-0.07363999375,0.10200,
-0.07362000000,0.10000,
-0.07360000000,0.11600,
-0.07357999375,0.10800,
-0.07356000000,0.12800,
-0.07353999375,0.12000,
-0.07352000000,0.11600,
-0.07350000000,0.13400,
-0.07347999375,0.12600,
-0.07346000000,0.13400,
-0.07344000000,0.13000,
-0.07341999375,0.14000,
-0.07340000000,0.14400,
-0.07338000000,0.12800,
-0.07335999375,0.12800,
-0.07334000000,0.12400,
-0.07332000000,0.11800,
-0.07329999375,0.10000,
-0.07328000000,0.07800,
-0.07326000000,0.06600,
-0.07324000000,0.05400,
-0.07322000000,0.04600,
-0.07319999375,0.05000,
-0.07318000000,0.05800,
-0.07316000000,0.08600,
-0.07313999375,0.10400,
-0.07312000000,0.13600,
-0.07310000000,0.16000,
-0.07307999375,0.17800,
-0.07306000000,0.19600,
-0.07304000000,0.19200,
-0.07301999375,0.19400,
-0.07300000000,0.16400,
-0.07298000000,0.17200,
-0.07295999375,0.16600,
-0.07294000000,0.14600,
-0.07291999375,0.14200,
-0.07290000000,0.11400,
-0.07288000000,0.11600,
-0.07285999375,0.10400,
-0.07284000000,0.10400,
-0.07282000000,0.10400,
-0.07279999375,0.10200,
-0.07278000000,0.11000,
-0.07276000000,0.11800,
-0.07273999375,0.13200,
-0.07272000000,0.12800,
-0.07270000000,0.14400,
-0.07267999375,0.15600,
-0.07266000000,0.15000,
-0.07264000000,0.15000,
-0.07262000000,0.15200,
-0.07260000000,0.15800,
-0.07257999375,0.16000,
-0.07256000000,0.16800,
-0.07254000000,0.15600,
-0.07251999375,0.16800,
-0.07250000000,0.15600,
-0.07248000000,0.17000,
-0.07245999375,0.16400,
-0.07244000000,0.15800,
-0.07242000000,0.16600,
-0.07239999375,0.16400,
-0.07238000000,0.17600,
-0.07236000000,0.15600,
-0.07233999375,0.17800,
-0.07232000000,0.18600,
-0.07229999375,0.15800,
-0.07228000000,0.17600,
-0.07226000000,0.15800,
-0.07223999375,0.18800,
-0.07222000000,0.16400,
-0.07220000000,0.17400,
-0.07217999375,0.18200,
-0.07216000000,0.16600,
-0.07214000000,0.18000,
-0.07211999375,0.17000,
-0.07210000000,0.19000,
-0.07208000000,0.16800,
-0.07205999375,0.16000,
-0.07204000000,0.18000,
-0.07202000000,0.16200,
-0.07200000000,0.16600,
-0.07198000000,0.15000,
-0.07195999375,0.16600,
-0.07194000000,0.16400,
-0.07192000000,0.16000,
-0.07189999375,0.15600,
-0.07188000000,0.15800,
-0.07186000000,0.14600,
-0.07183999375,0.15000,
-0.07182000000,0.13800,
-0.07180000000,0.13400,
-0.07177999375,0.14000,
-0.07176000000,0.13400,
-0.07174000000,0.14600,
-0.07171999375,0.12800,
-0.07170000000,0.14000,
-0.07168000000,0.14600,
-0.07166000000,0.12600,
-0.07164000000,0.14000,
-0.07161999375,0.12000,
-0.07160000000,0.15000,
-0.07158000000,0.11800,
-0.07155999375,0.12400,
-0.07154000000,0.14000,
-0.07152000000,0.12200,
-0.07149999375,0.13800,
-0.07148000000,0.12000,
-0.07146000000,0.13600,
-0.07143999375,0.11400,
-0.07142000000,0.10400,
-0.07140000000,0.12800,
-0.07137999375,0.11000,
-0.07136000000,0.11200,
-0.07133999375,0.09200,
-0.07132000000,0.11200,
-0.07130000000,0.11800,
-0.07127999375,0.09800,
-0.07126000000,0.11000,
-0.07124000000,0.10400,
-0.07121999375,0.09800,
-0.07120000000,0.10000,
-0.07118000000,0.10400,
-0.07115999375,0.10200,
-0.07114000000,0.11000,
-0.07112000000,0.10400,
-0.07109999375,0.11200,
-0.07108000000,0.10400,
-0.07106000000,0.10600,
-0.07104000000,0.11400,
-0.07102000000,0.10000,
-0.07099999375,0.10600,
-0.07098000000,0.09000,
-0.07096000000,0.10400,
-0.07093999375,0.09800,
-0.07092000000,0.09800,
-0.07090000000,0.10800,
-0.07087999375,0.09600,
-0.07086000000,0.10000,
-0.07084000000,0.09200,
-0.07081999375,0.10200,
-0.07080000000,0.09400,
-0.07078000000,0.09000,
-0.07075999375,0.09600,
-0.07074000000,0.08600,
-0.07071999375,0.08600,
-0.07070000000,0.07200,
-0.07068000000,0.08200,
-0.07065999375,0.08400,
-0.07064000000,0.06600,
-0.07062000000,0.06000,
-0.07059999375,0.05000,
-0.07058000000,0.05000,
-0.07056000000,0.04600,
-0.07053999375,0.04600,
-0.07052000000,0.03800,
-0.07050000000,0.02600,
-0.07047999375,0.02600,
-0.07046000000,0.02000,
-0.07044000000,0.02000,
-0.07042000000,0.01600,
-0.07040000000,0.02200,
-0.07037999375,0.02800,
-0.07036000000,0.03000,
-0.07034000000,0.03400,
-0.07031999375,0.04000,
-0.07030000000,0.03800,
-0.07028000000,0.04000,
-0.07025999375,0.03800,
-0.07024000000,0.02800,
-0.07022000000,0.02400,
-0.07019999375,0.01200,
-0.07018000000,0.01200,
-0.07016000000,0.01200,
-0.07013999375,0.01600,
-0.07012000000,0.01200,
-0.07009999375,0.01600,
-0.07008000000,0.01800,
-0.07006000000,0.01000,
-0.07003999375,0.01800,
-0.07002000000,0.01200,
-0.07000000000,0.01800,
-0.06997999375,0.01600,
-0.06996000000,0.00600,
-0.06994000000,0.01400,
-0.06991999375,0.01200,
-0.06990000000,0.01200,
-0.06988000000,0.01000,
-0.06985999375,0.00800,
-0.06984000000,0.01400,
-0.06982000000,0.01200,
-0.06980000000,0.01400,
-0.06978000000,0.01200,
-0.06975999375,0.01200,
-0.06974000000,0.02200,
-0.06972000000,0.00200,
-0.06969999375,0.01800,
-0.06968000000,0.02000,
-0.06966000000,0.00800,
-0.06963999375,0.02000,
-0.06962000000,0.00200,
-0.06960000000,0.02000,
-0.06957999375,0.01000,
-0.06956000000,0.00400,
-0.06954000000,0.02000,
-0.06951999375,0.00600,
-0.06950000000,0.02000,
-0.06948000000,0.00400,
-0.06946000000,0.01400,
-0.06944000000,0.01800,
-0.06941999375,0.00400,
-0.06940000000,0.01600,
-0.06938000000,0.00600,
-0.06935999375,0.03000,
-0.06934000000,0.01400,
-0.06932000000,0.00800,
-0.06929999375,0.05400,
-0.06928000000,0.00400,
-0.06926000000,0.05000,
-0.06923999375,0.01400,
-0.06922000000,0.02200,
-0.06920000000,0.01800,
-0.06917999375,0.01200,
-0.06916000000,0.06600,
-0.06913999375,0.01400,
-0.06912000000,0.07600,
-0.06910000000,0.02800,
-0.06907999375,0.02200,
-0.06906000000,0.02800,
-0.06904000000,0.03000,
-0.06901999375,0.03600,
-0.06900000000,0.08400,
-0.06898000000,0.02600,
-0.06895999375,0.04000,
-0.06894000000,0.01000,
-0.06892000000,0.03800,
-0.06889999375,0.05400,
-0.06888000000,0.01200,
-0.06886000000,0.11600,
-0.06884000000,0.01000,
-0.06882000000,0.09200,
-0.06879999375,0.03200,
-0.06878000000,0.09200,
-0.06876000000,0.02400,
-0.06873999375,0.09400,
-0.06872000000,0.05200,
-0.06870000000,0.05400,
-0.06867999375,0.08400,
-0.06866000000,0.09400,
-0.06864000000,0.05800,
-0.06861999375,0.08200,
-0.06860000000,0.08000,
-0.06858000000,0.06400,
-0.06855999375,0.07800,
-0.06854000000,0.06000,
-0.06851999375,0.08000,
-0.06850000000,0.07000,
-0.06848000000,0.05800,
-0.06845999375,0.07800,
-0.06844000000,0.06400,
-0.06842000000,0.08000,
-0.06839999375,0.04800,
-0.06838000000,0.07200,
-0.06836000000,0.07400,
-0.06833999375,0.05000,
-0.06832000000,0.07200,
-0.06830000000,0.05600,
-0.06827999375,0.07200,
-0.06826000000,0.05800,
-0.06824000000,0.05800,
-0.06822000000,0.07400,
-0.06820000000,0.05600,
-0.06817999375,0.06600,
-0.06816000000,0.05600,
-0.06814000000,0.07000,
-0.06811999375,0.06200,
-0.06810000000,0.05400,
-0.06808000000,0.07400,
-0.06805999375,0.06000,
-0.06804000000,0.06400,
-0.06802000000,0.07200,
-0.06799999375,0.06000,
-0.06798000000,0.07400,
-0.06796000000,0.06800,
-0.06793999375,0.06000,
-0.06792000000,0.06800,
-0.06790000000,0.06800,
-0.06788000000,0.07000,
-0.06786000000,0.05600,
-0.06783999375,0.06000,
-0.06782000000,0.06200,
-0.06780000000,0.05800,
-0.06777999375,0.05800,
-0.06776000000,0.05200,
-0.06774000000,0.07200,
-0.06771999375,0.06400,
-0.06770000000,0.05800,
-0.06768000000,0.06600,
-0.06765999375,0.06000,
-0.06764000000,0.06600,
-0.06762000000,0.05600,
-0.06760000000,0.06000,
-0.06758000000,0.05600,
-0.06755999375,0.05600,
-0.06754000000,0.06200,
-0.06752000000,0.05200,
-0.06749999375,0.06000,
-0.06748000000,0.04400,
-0.06746000000,0.04600,
-0.06743999375,0.05400,
-0.06742000000,0.04800,
-0.06740000000,0.06200,
-0.06737999375,0.05200,
-0.06736000000,0.05800,
-0.06734000000,0.07200,
-0.06731999375,0.05000,
-0.06730000000,0.06400,
-0.06728000000,0.05600,
-0.06726000000,0.06200,
-0.06724000000,0.06600,
-0.06721999375,0.05000,
-0.06720000000,0.06200,
-0.06718000000,0.04800,
-0.06715999375,0.05800,
-0.06714000000,0.06400,
-0.06712000000,0.04600,
-0.06709999375,0.06400,
-0.06708000000,0.04600,
-0.06706000000,0.05800,
-0.06703999375,0.05200,
-0.06702000000,0.04400,
-0.06700000000,0.05600,
-0.06697999375,0.04600,
-0.06696000000,0.05400,
-0.06693999375,0.05200,
-0.06692000000,0.05400,
-0.06690000000,0.06000,
-0.06687999375,0.05200,
-0.06686000000,0.05400,
-0.06684000000,0.06600,
-0.06681999375,0.02800,
-0.06680000000,-0.00800,
-0.06678000000,0.01000,
-0.06675999375,0.02600,
-0.06674000000,-0.00600,
-0.06672000000,0.00400,
-0.06669999375,0.00,
-0.06668000000,0.02400,
-0.06666000000,-0.00800,
-0.06664000000,0.02200,
-0.06662000000,0.01400,
-0.06659999375,-0.01000,
-0.06658000000,0.02800,
-0.06656000000,-0.00200,
-0.06653999375,0.00200,
-0.06652000000,0.00,
-0.06650000000,0.00200,
-0.06647999375,-0.02000,
-0.06646000000,0.00600,
-0.06644000000,-0.01800,
-0.06641999375,0.02200,
-0.06640000000,-0.01800,
-0.06638000000,-0.00600,
-0.06635999375,0.02600,
-0.06634000000,-0.01200,
-0.06631999375,0.01800,
-0.06630000000,-0.00600,
-0.06628000000,0.02400,
-0.06625999375,-0.00800,
-0.06624000000,0.32000,
-0.06622000000,0.32000,
-0.06619999375,0.13400,
-0.06618000000,-0.00200,
-0.06616000000,-0.01800,
-0.06613999375,0.00600,
-0.06612000000,0.01400,
-0.06610000000,0.00600,
-0.06607999375,0.00,
-0.06606000000,0.01600,
-0.06604000000,-0.00400,
-0.06602000000,0.01400,
-0.06600000000,0.00600,
-0.06597999375,-0.01400,
-0.06596000000,0.01400,
-0.06594000000,0.00,
-0.06591999375,0.01200,
-0.06590000000,-0.01000,
-0.06588000000,0.01400,
-0.06585999375,0.02400,
-0.06584000000,-0.00800,
-0.06582000000,0.00800,
-0.06579999375,-0.00600,
-0.06578000000,0.02600,
-0.06576000000,-0.00600,
-0.06573999375,-0.01200,
-0.06572000000,0.01200,
-0.06570000000,-0.00400,
-0.06568000000,0.01600,
-0.06566000000,0.00200,
-0.06563999375,0.01800,
-0.06562000000,0.00200,
-0.06560000000,0.00200,
-0.06557999375,0.01600,
-0.06556000000,0.00,
-0.06554000000,-0.00200,
-0.06551999375,-0.00600,
-0.06550000000,0.00600,
-0.06548000000,0.01600,
-0.06545999375,0.00200,
-0.06544000000,-0.00800,
-0.06542000000,0.01000,
-0.06540000000,0.01200,
-0.06538000000,0.00800,
-0.06535999375,0.00600,
-0.06534000000,-0.01000,
-0.06532000000,0.00600,
-0.06529999375,-0.00600,
-0.06528000000,0.01800,
-0.06526000000,-0.00200,
-0.06523999375,0.01200,
-0.06522000000,0.03400,
-0.06520000000,0.00600,
-0.06517999375,0.01200,
-0.06516000000,0.00,
-0.06514000000,0.01200,
-0.06511999375,-0.00200,
-0.06510000000,-0.00400,
-0.06508000000,0.01000,
-0.06506000000,0.00,
-0.06504000000,0.01600,
-0.06501999375,0.00200,
-0.06500000000,0.01400,
-0.06498000000,0.00600,
-0.06495999375,0.00800,
-0.06494000000,0.01400,
-0.06492000000,0.00400,
-0.06489999375,0.01000,
-0.06488000000,0.00600,
-0.06486000000,0.01600,
-0.06483999375,0.00200,
-0.06482000000,-0.01000,
-0.06480000000,0.01200,
-0.06477999375,-0.00400,
-0.06476000000,0.00400,
-0.06473999375,-0.00400,
-0.06472000000,0.00200,
-0.06470000000,0.01000,
-0.06467999375,-0.00600,
-0.06466000000,0.00800,
-0.06464000000,0.00200,
-0.06461999375,0.00800,
-0.06460000000,0.00600,
-0.06458000000,0.01600,
-0.06455999375,0.01800,
-0.06454000000,0.00400,
-0.06452000000,-0.00800,
-0.06449999375,0.00800,
-0.06448000000,-0.00200,
-0.06446000000,0.01200,
-0.06444000000,0.00600,
-0.06442000000,0.00,
-0.06439999375,0.01800,
-0.06438000000,0.00200,
-0.06436000000,0.00400,
-0.06433999375,0.00600,
-0.06432000000,0.00600,
-0.06430000000,0.00,
-0.06427999375,-0.00200,
-0.06426000000,0.02000,
-0.06424000000,-0.00200,
-0.06421999375,0.00600,
-0.06420000000,-0.00400,
-0.06418000000,0.01000,
-0.06415999375,0.01400,
-0.06414000000,-0.01400,
-0.06412000000,0.00,
-0.06410000000,0.00600,
-0.06408000000,-0.00600,
-0.06405999375,0.01000,
-0.06404000000,-0.00800,
-0.06402000000,0.01800,
-0.06399999375,0.01200,
-0.06398000000,-0.00400,
-0.06396000000,0.01400,
-0.06393999375,0.00600,
-0.06392000000,0.02200,
-0.06390000000,-0.00800,
-0.06387999375,0.00600,
-0.06386000000,0.01800,
-0.06384000000,-0.01000,
-0.06382000000,0.02800,
-0.06380000000,-0.01800,
-0.06377999375,0.02200,
-0.06376000000,0.00800,
-0.06374000000,-0.02400,
-0.06371999375,0.02200,
-0.06370000000,-0.00400,
-0.06368000000,0.02000,
-0.06365999375,-0.00600,
-0.06364000000,0.00200,
-0.06362000000,0.02000,
-0.06359999375,-0.01600,
-0.06358000000,0.01200,
-0.06356000000,-0.00200,
-0.06353999375,0.01600,
-0.06352000000,0.01200,
-0.06350000000,-0.01400,
-0.06348000000,0.02200,
-0.06346000000,0.00200,
-0.06343999375,-0.00600,
-0.06342000000,0.02000,
-0.06340000000,-0.01800,
-0.06337999375,0.02000,
-0.06336000000,0.00400,
-0.06334000000,-0.00800,
-0.06331999375,0.01400,
-0.06330000000,-0.01600,
-0.06328000000,0.03000,
-0.06325999375,-0.00600,
-0.06324000000,-0.00400,
-0.06322000000,0.01600,
-0.06320000000,-0.01200,
-0.06318000000,0.03000,
-0.06315999375,-0.01400,
-0.06314000000,0.01200,
-0.06312000000,0.00800,
-0.06309999375,-0.02400,
-0.06308000000,0.02000,
-0.06306000000,-0.00600,
-0.06303999375,0.02000,
-0.06302000000,0.00400,
-0.06300000000,-0.00800,
-0.06297999375,0.02800,
-0.06296000000,-0.01800,
-0.06294000000,0.00600,
-0.06291999375,0.01200,
-0.06290000000,0.00,
-0.06288000000,0.01400,
-0.06286000000,-0.01200,
-0.06284000000,0.03200,
-0.06281999375,-0.00200,
-0.06280000000,0.00200,
-0.06278000000,0.02600,
-0.06275999375,-0.01400,
-0.06274000000,0.02200,
-0.06272000000,-0.01200,
-0.06269999375,0.01200,
-0.06268000000,0.01400,
-0.06266000000,-0.02000,
-0.06263999375,0.02000,
-0.06262000000,-0.00400,
-0.06260000000,0.01600,
-0.06258000000,0.00400,
-0.06256000000,0.00200,
-0.06253999375,0.01800,
-0.06252000000,-0.01200,
-0.06250000000,0.00800,
-0.06248000000,0.00600,
-0.06246000000,0.00400,
-0.06243999375,0.01200,
-0.06242000000,-0.01200,
-0.06240000000,0.01800,
-0.06238000000,0.00200,
-0.06236000000,-0.00800,
-0.06234000000,0.00600,
-0.06232000000,-0.00800,
-0.06229999375,0.01000,
-0.06228000000,0.00400,
-0.06226000000,-0.00200,
-0.06224000000,0.00600,
-0.06222000000,-0.00200,
-0.06220000000,0.02800,
-0.06218000000,-0.00200,
-0.06216000000,0.00600,
-0.06214000000,0.01600,
-0.06212000000,-0.00200,
-0.06210000000,0.01600,
-0.06208000000,-0.00400,
-0.06206000000,0.00800,
-0.06204000000,0.00400,
-0.06202000000,-0.00400,
-0.06200000000,0.01000,
-0.06198000000,0.00200,
-0.06195999375,0.00600,
-0.06194000000,-0.00200,
-0.06192000000,0.00400,
-0.06190000000,0.01800,
-0.06188000000,-0.00200,
-0.06186000000,0.01000,
-0.06184000000,0.00600,
-0.06181999375,0.00400,
-0.06180000000,0.00600,
-0.06178000000,-0.00400,
-0.06176000000,0.00,
-0.06174000000,0.00600,
-0.06172000000,0.00,
-0.06170000000,0.00200,
-0.06168000000,-0.00200,
-0.06166000000,0.00800,
-0.06164000000,0.00600,
-0.06162000000,0.01200,
-0.06160000000,0.00400,
-0.06158000000,0.00600,
-0.06156000000,0.01000,
-0.06154000000,0.00200,
-0.06152000000,0.01000,
-0.06150000000,0.00600,
-0.06148000000,0.00600,
-0.06146000000,0.01000,
-0.06144000000,0.00200,
-0.06142000000,0.00800,
-0.06140000000,0.00800,
-0.06138000000,0.01000,
-0.06136000000,0.00800,
-0.06133999375,0.00200,
-0.06132000000,0.00400,
-0.06130000000,0.00600,
-0.06128000000,0.00600,
-0.06126000000,0.01800,
-0.06124000000,0.00400,
-0.06122000000,0.01200,
-0.06119999375,0.01400,
-0.06118000000,0.00600,
-0.06116000000,0.01000,
-0.06114000000,0.00200,
-0.06112000000,0.01600,
-0.06110000000,0.00600,
-0.06108000000,0.00600,
-0.06106000000,0.01600,
-0.06104000000,0.00600,
-0.06102000000,0.01600,
-0.06100000000,0.00800,
-0.06098000000,0.01600,
-0.06096000000,0.00600,
-0.06094000000,0.00200,
-0.06092000000,0.02000,
-0.06090000000,0.01000,
-0.06088000000,0.01200,
-0.06085999375,0.00400,
-0.06084000000,0.01400,
-0.06082000000,0.01600,
-0.06080000000,0.01000,
-0.06078000000,0.01400,
-0.06076000000,0.01200,
-0.06074000000,0.01400,
-0.06071999375,0.00800,
-0.06070000000,0.01200,
-0.06068000000,0.01000,
-0.06066000000,0.01400,
-0.06064000000,0.01000,
-0.06062000000,0.02000,
-0.06060000000,0.01600,
-0.06058000000,0.01200,
-0.06056000000,0.01800,
-0.06054000000,0.01200,
-0.06052000000,0.01600,
-0.06050000000,0.00800,
-0.06048000000,0.01600,
-0.06046000000,0.01000,
-0.06044000000,0.00600,
-0.06042000000,0.02200,
-0.06040000000,0.00800,
-0.06038000000,0.02000,
-0.06036000000,0.00800,
-0.06034000000,0.02400,
-0.06032000000,0.01000,
-0.06030000000,0.00800,
-0.06028000000,0.02600,
-0.06026000000,0.01600,
-0.06023999375,0.02200,
-0.06022000000,0.00600,
-0.06020000000,0.02400,
-0.06018000000,0.03400,
-0.06016000000,0.01600,
-0.06014000000,0.02600,
-0.06012000000,0.01600,
-0.06009999375,0.02800,
-0.06008000000,0.01800,
-0.06006000000,0.02600,
-0.06004000000,0.02800,
-0.06002000000,0.03000,
-0.06000000000,0.03000,
-0.05998000000,0.03400,
-0.05996000000,0.04200,
-0.05994000000,0.03600,
-0.05992000000,0.04400,
-0.05990000000,0.04600,
-0.05988000000,0.04200,
-0.05986000000,0.04200,
-0.05984000000,0.04600,
-0.05982000000,0.04600,
-0.05980000000,0.04200,
-0.05978000000,0.06000,
-0.05975999375,0.04600,
-0.05974000000,0.05600,
-0.05972000000,0.04600,
-0.05970000000,0.06000,
-0.05968000000,0.04800,
-0.05966000000,0.04600,
-0.05964000000,0.05400,
-0.05961999375,0.04800,
-0.05960000000,0.06200,
-0.05958000000,0.04400,
-0.05956000000,0.06400,
-0.05954000000,0.06800,
-0.05952000000,0.04600,
-0.05950000000,0.06000,
-0.05948000000,0.05000,
-0.05946000000,0.06600,
-0.05944000000,0.04800,
-0.05942000000,0.05400,
-0.05940000000,0.05200,
-0.05938000000,0.04000,
-0.05936000000,0.04400,
-0.05934000000,0.04200,
-0.05932000000,0.04400,
-0.05930000000,0.03600,
-0.05928000000,0.03600,
-0.05926000000,0.05400,
-0.05924000000,0.06000,
-0.05922000000,0.07600,
-0.05920000000,0.09000,
-0.05918000000,0.11000,
-0.05916000000,0.12200,
-0.05913999375,0.13200,
-0.05912000000,0.12800,
-0.05910000000,0.13000,
-0.05908000000,0.12200,
-0.05906000000,0.11600,
-0.05904000000,0.09800,
-0.05902000000,0.09000,
-0.05900000000,0.09600,
-0.05898000000,0.09400,
-0.05896000000,0.09800,
-0.05894000000,0.08400,
-0.05892000000,0.09400,
-0.05890000000,0.09600,
-0.05888000000,0.08800,
-0.05886000000,0.09800,
-0.05884000000,0.08600,
-0.05882000000,0.09800,
-0.05880000000,0.09800,
-0.05878000000,0.10600,
-0.05876000000,0.11400,
-0.05874000000,0.10800,
-0.05872000000,0.12600,
-0.05870000000,0.11800,
-0.05868000000,0.12400,
-0.05865999375,0.12600,
-0.05864000000,0.13200,
-0.05862000000,0.14200,
-0.05860000000,0.13600,
-0.05858000000,0.14400,
-0.05856000000,0.14400,
-0.05854000000,0.14400,
-0.05851999375,0.15800,
-0.05850000000,0.15200,
-0.05848000000,0.15400,
-0.05846000000,0.15800,
-0.05844000000,0.14400,
-0.05842000000,0.15800,
-0.05840000000,0.14800,
-0.05838000000,0.15800,
-0.05836000000,0.15200,
-0.05834000000,0.15800,
-0.05832000000,0.16200,
-0.05830000000,0.15000,
-0.05828000000,0.16200,
-0.05826000000,0.15200,
-0.05824000000,0.16600,
-0.05822000000,0.15600,
-0.05820000000,0.14000,
-0.05818000000,0.16600,
-0.05816000000,0.15400,
-0.05814000000,0.15800,
-0.05812000000,0.15800,
-0.05810000000,0.15600,
-0.05808000000,0.16000,
-0.05806000000,0.15800,
-0.05803999375,0.15600,
-0.05802000000,0.15800,
-0.05800000000,0.15800,
-0.05798000000,0.16000,
-0.05796000000,0.13600,
-0.05794000000,0.14800,
-0.05792000000,0.14000,
-0.05790000000,0.13400,
-0.05788000000,0.15400,
-0.05786000000,0.12800,
-0.05784000000,0.14400,
-0.05782000000,0.13600,
-0.05780000000,0.12800,
-0.05778000000,0.15000,
-0.05776000000,0.13200,
-0.05774000000,0.15200,
-0.05772000000,0.12600,
-0.05770000000,0.14200,
-0.05768000000,0.15000,
-0.05766000000,0.12600,
-0.05764000000,0.32000,
-0.05762000000,0.31400,
-0.05760000000,0.07400,
-0.05758000000,0.07000,
-0.05755999375,0.08000,
-0.05754000000,0.10800,
-0.05752000000,0.08400,
-0.05750000000,0.09600,
-0.05748000000,0.08400,
-0.05746000000,0.08400,
-0.05744000000,0.09200,
-0.05741999375,0.07400,
-0.05740000000,0.09600,
-0.05738000000,0.08200,
-0.05736000000,0.08400,
-0.05734000000,0.09000,
-0.05732000000,0.07600,
-0.05730000000,0.03800,
-0.05728000000,-0.00200,
-0.05726000000,0.00400,
-0.05724000000,0.00600,
-0.05722000000,-0.00200,
-0.05720000000,0.01800,
-0.05718000000,0.01000,
-0.05716000000,0.02400,
-0.05714000000,0.02400,
-0.05712000000,0.02400,
-0.05710000000,0.05600,
-0.05708000000,0.04400,
-0.05706000000,0.07000,
-0.05704000000,0.07400,
-0.05702000000,0.08000,
-0.05700000000,0.09200,
-0.05698000000,0.08400,
-0.05696000000,0.12000,
-0.05693999375,0.11000,
-0.05692000000,0.11200,
-0.05690000000,0.12800,
-0.05688000000,0.11000,
-0.05686000000,0.14000,
-0.05684000000,0.12800,
-0.05682000000,0.13600,
-0.05680000000,0.14800,
-0.05678000000,0.13000,
-0.05676000000,0.15000,
-0.05674000000,0.12800,
-0.05672000000,0.13000,
-0.05670000000,0.13800,
-0.05668000000,0.12000,
-0.05666000000,0.13200,
-0.05664000000,0.08800,
-0.05662000000,0.10000,
-0.05660000000,0.07600,
-0.05658000000,0.05400,
-0.05656000000,0.06000,
-0.05654000000,0.03600,
-0.05652000000,0.05600,
-0.05650000000,0.05600,
-0.05648000000,0.07800,
-0.05645999375,0.13000,
-0.05644000000,0.13600,
-0.05642000000,0.17800,
-0.05640000000,0.18000,
-0.05638000000,0.20200,
-0.05636000000,0.19200,
-0.05634000000,0.17200,
-0.05632000000,0.18600,
-0.05630000000,0.16600,
-0.05628000000,0.16400,
-0.05626000000,0.14400,
-0.05624000000,0.12800,
-0.05622000000,0.14000,
-0.05620000000,0.11400,
-0.05618000000,0.10400,
-0.05616000000,0.10600,
-0.05614000000,0.10400,
-0.05612000000,0.11000,
-0.05610000000,0.10600,
-0.05608000000,0.11600,
-0.05606000000,0.12800,
-0.05604000000,0.13200,
-0.05602000000,0.14000,
-0.05600000000,0.14000,
-0.05598000000,0.16200,
-0.05596000000,0.15400,
-0.05594000000,0.15400,
-0.05592000000,0.16200,
-0.05590000000,0.15200,
-0.05588000000,0.17000,
-0.05586000000,0.15800,
-0.05583999375,0.16000,
-0.05582000000,0.17000,
-0.05580000000,0.16200,
-0.05578000000,0.16800,
-0.05576000000,0.16800,
-0.05574000000,0.17200,
-0.05572000000,0.16800,
-0.05570000000,0.15600,
-0.05568000000,0.16800,
-0.05566000000,0.16400,
-0.05564000000,0.16200,
-0.05562000000,0.17000,
-0.05560000000,0.17000,
-0.05558000000,0.18400,
-0.05556000000,0.16600,
-0.05554000000,0.17000,
-0.05552000000,0.17600,
-0.05550000000,0.17200,
-0.05548000000,0.18200,
-0.05546000000,0.17000,
-0.05544000000,0.18000,
-0.05542000000,0.17000,
-0.05540000000,0.17600,
-0.05538000000,0.18400,
-0.05535999375,0.16600,
-0.05534000000,0.17400,
-0.05532000000,0.15800,
-0.05530000000,0.17200,
-0.05528000000,0.15800,
-0.05526000000,0.15600,
-0.05524000000,0.16600,
-0.05522000000,0.15400,
-0.05520000000,0.15400,
-0.05518000000,0.14600,
-0.05516000000,0.14600,
-0.05514000000,0.14400,
-0.05512000000,0.14400,
-0.05510000000,0.14000,
-0.05508000000,0.13600,
-0.05506000000,0.12800,
-0.05504000000,0.13200,
-0.05502000000,0.13400,
-0.05500000000,0.13000,
-0.05498000000,0.13400,
-0.05496000000,0.13200,
-0.05494000000,0.14600,
-0.05492000000,0.13200,
-0.05490000000,0.13600,
-0.05488000000,0.14000,
-0.05486000000,0.11800,
-0.05484000000,0.12800,
-0.05482000000,0.11600,
-0.05480000000,0.13200,
-0.05478000000,0.11600,
-0.05476000000,0.12600,
-0.05473999375,0.13400,
-0.05472000000,0.11000,
-0.05470000000,0.11400,
-0.05468000000,0.10800,
-0.05466000000,0.12600,
-0.05464000000,0.10000,
-0.05462000000,0.09000,
-0.05460000000,0.11000,
-0.05458000000,0.09800,
-0.05456000000,0.11200,
-0.05454000000,0.09400,
-0.05452000000,0.11200,
-0.05450000000,0.10200,
-0.05448000000,0.09800,
-0.05446000000,0.10600,
-0.05444000000,0.10000,
-0.05442000000,0.10000,
-0.05440000000,0.09200,
-0.05438000000,0.10000,
-0.05436000000,0.10000,
-0.05434000000,0.09400,
-0.05432000000,0.10200,
-0.05430000000,0.10800,
-0.05428000000,0.11000,
-0.05425999375,0.10200,
-0.05424000000,0.09800,
-0.05422000000,0.09000,
-0.05420000000,0.10000,
-0.05418000000,0.09000,
-0.05416000000,0.10600,
-0.05414000000,0.08800,
-0.05412000000,0.09400,
-0.05410000000,0.09800,
-0.05408000000,0.08200,
-0.05406000000,0.08400,
-0.05404000000,0.07400,
-0.05402000000,0.08400,
-0.05400000000,0.05800,
-0.05398000000,0.05000,
-0.05396000000,0.05400,
-0.05394000000,0.04400,
-0.05392000000,0.05800,
-0.05390000000,0.04200,
-0.05388000000,0.05800,
-0.05386000000,0.05200,
-0.05384000000,0.03400,
-0.05382000000,0.03200,
-0.05380000000,0.02000,
-0.05378000000,0.02200,
-0.05376000000,0.01000,
-0.05374000000,0.02200,
-0.05372000000,0.02600,
-0.05370000000,0.01600,
-0.05368000000,0.03200,
-0.05366000000,0.02800,
-0.05363999375,0.04800,
-0.05362000000,0.03600,
-0.05360000000,0.03200,
-0.05358000000,0.02800,
-0.05356000000,0.02200,
-0.05354000000,0.01800,
-0.05352000000,0.01800,
-0.05350000000,0.01400,
-0.05348000000,0.01400,
-0.05346000000,0.01200,
-0.05344000000,0.01200,
-0.05342000000,0.01600,
-0.05340000000,0.00800,
-0.05338000000,0.02200,
-0.05336000000,0.01200,
-0.05334000000,0.00800,
-0.05332000000,0.01800,
-0.05330000000,0.01200,
-0.05328000000,0.02600,
-0.05326000000,0.00800,
-0.05324000000,0.01600,
-0.05322000000,0.01400,
-0.05320000000,0.00600,
-0.05318000000,0.01600,
-0.05315999375,0.00800,
-0.05314000000,0.01400,
-0.05312000000,0.00800,
-0.05310000000,0.01400,
-0.05308000000,0.01800,
-0.05306000000,0.01000,
-0.05304000000,0.01600,
-0.05302000000,0.01000,
-0.05300000000,0.01400,
-0.05298000000,0.01000,
-0.05296000000,0.01000,
-0.05294000000,0.01400,
-0.05292000000,0.00800,
-0.05290000000,0.02000,
-0.05288000000,0.01400,
-0.05286000000,0.01800,
-0.05284000000,0.01600,
-0.05282000000,0.01200,
-0.05280000000,0.02200,
-0.05278000000,0.01200,
-0.05276000000,0.04000,
-0.05274000000,0.01200,
-0.05272000000,0.01400,
-0.05270000000,0.01600,
-0.05268000000,0.00600,
-0.05266000000,0.02400,
-0.05264000000,0.03200,
-0.05262000000,0.01200,
-0.05260000000,0.01800,
-0.05258000000,0.01200,
-0.05256000000,0.01400,
-0.05254000000,0.02600,
-0.05252000000,0.03200,
-0.05250000000,0.09600,
-0.05248000000,0.01200,
-0.05246000000,0.03800,
-0.05244000000,0.02000,
-0.05241999688,0.11200,
-0.05240000000,0.01800,
-0.05238000000,0.09200,
-0.05235999688,0.03800,
-0.05233999688,0.02200,
-0.05232000000,0.10000,
-0.05230000000,0.08400,
-0.05227999688,0.07200,
-0.05226000000,0.08800,
-0.05224000000,0.08600,
-0.05221999688,0.07000,
-0.05219999688,0.08000,
-0.05218000000,0.07600,
-0.05216000000,0.07600,
-0.05213999688,0.07200,
-0.05212000000,0.06600,
-0.05210000000,0.07200,
-0.05207999688,0.07200,
-0.05205999688,0.07800,
-0.05204000000,0.05800,
-0.05201999688,0.08200,
-0.05199999688,0.06600,
-0.05198000000,0.06000,
-0.05196000000,0.07600,
-0.05193999688,0.05600,
-0.05192000000,0.08400,
-0.05190000000,0.05600,
-0.05187999688,0.06600,
-0.05185999688,0.08400,
-0.05184000000,0.05800,
-0.05182000000,0.07200,
-0.05179999688,0.05400,
-0.05178000000,0.08000,
-0.05176000000,0.06400,
-0.05173999688,0.06200,
-0.05171999688,0.08800,
-0.05170000000,0.05800,
-0.05168000000,0.07200,
-0.05165999688,0.06400,
-0.05164000000,0.06200,
-0.05162000000,0.07800,
-0.05159999688,0.05400,
-0.05157999688,0.07200,
-0.05156000000,0.06400,
-0.05154000000,0.05800,
-0.05151999688,0.07200,
-0.05150000000,0.05600,
-0.05148000000,0.07600,
-0.05145999688,0.05600,
-0.05144000000,0.06400,
-0.05142000000,0.07200,
-0.05139999688,0.04400,
-0.05137999688,0.07600,
-0.05136000000,0.05000,
-0.05134000000,0.06800,
-0.05131999688,0.06800,
-0.05130000000,0.04600,
-0.05128000000,0.08400,
-0.05125999688,0.04600,
-0.05123999688,0.06800,
-0.05122000000,0.06400,
-0.05120000000,0.05200,
-0.05117999688,0.07200,
-0.05116000000,0.04600,
-0.05114000000,0.07800,
-0.05111999688,0.06000,
-0.05109999688,0.05200,
-0.05108000000,0.08600,
-0.05106000000,0.04600,
-0.05103999688,0.08000,
-0.05102000000,0.06000,
-0.05100000000,0.06000,
-0.05097999688,0.08200,
-0.05095999688,0.04400,
-0.05094000000,0.08000,
-0.05091999688,0.05800,
-0.05089999688,0.04400,
-0.05088000000,0.06600,
-0.05086000000,0.03400,
-0.05083999688,0.06400,
-0.05082000000,0.03600,
-0.05080000000,0.05000,
-0.05077999688,0.05800,
-0.05075999688,0.03400,
-0.05074000000,0.06000,
-0.05072000000,0.04200,
-0.05069999688,0.06400,
-0.05068000000,0.05800,
-0.05066000000,0.04200,
-0.05063999688,0.07400,
-0.05061999688,0.04800,
-0.05060000000,0.05800,
-0.05058000000,0.05400,
-0.05055999688,0.05600,
-0.05054000000,0.06200,
-0.05052000000,0.05000,
-0.05049999688,0.06000,
-0.05047999688,0.05600,
-0.05046000000,0.05800,
-0.05044000000,0.05800,
-0.05041999688,0.04800,
-0.05040000000,0.05800,
-0.05038000000,0.04400,
-0.05035999688,0.04600,
-0.05034000000,0.05800,
-0.05032000000,0.04400,
-0.05029999688,0.05400,
-0.05027999688,0.04200,
-0.05026000000,0.03400,
-0.05024000000,0.05000,
-0.05021999688,0.04200,
-0.05020000000,0.04800,
-0.05018000000,0.04200,
-0.05015999688,0.05000,
-0.05013999688,0.05000,
-0.05012000000,0.04800,
-0.05010000000,0.04800,
-0.05007999688,0.05200,
-0.05006000000,0.05800,
-0.05004000000,0.05000,
-0.05001999688,0.04600,
-0.04999999688,0.06000,
-0.04998000000,0.00800,
-0.04996000000,0.01400,
-0.04993999688,0.00,
-0.04992000000,0.00400,
-0.04990000000,0.00200,
-0.04987999688,0.03400,
-0.04985999688,-0.00800,
-0.04984000000,0.01200,
-0.04982000000,0.00200,
-0.04979999688,-0.01200,
-0.04978000000,0.02600,
-0.04976000000,-0.00600,
-0.04973999688,0.01800,
-0.04972000000,-0.00400,
-0.04970000000,0.00,
-0.04967999688,-0.00200,
-0.04965999688,-0.00200,
-0.04964000000,-0.00800,
-0.04962000000,0.01400,
-0.04959999688,-0.01200,
-0.04958000000,0.01000,
-0.04956000000,0.32000,
-0.04953999688,0.32000,
-0.04951999688,0.03600,
-0.04950000000,-0.02400,
-0.04948000000,-0.00200,
-0.04945999688,0.00,
-0.04944000000,0.00200,
-0.04942000000,0.01200,
-0.04939999688,0.00200,
-0.04937999688,0.00800,
-0.04936000000,0.00200,
-0.04934000000,-0.00200,
-0.04931999688,0.01000,
-0.04930000000,0.01400,
-0.04928000000,0.00400,
-0.04925999688,0.01200,
-0.04924000000,-0.00600,
-0.04922000000,0.00800,
-0.04919999688,0.00,
-0.04917999688,-0.00800,
-0.04916000000,0.01000,
-0.04914000000,0.00400,
-0.04911999688,0.01600,
-0.04910000000,-0.00200,
-0.04908000000,0.01200,
-0.04905999688,0.01800,
-0.04903999688,-0.00600,
-0.04902000000,0.01800,
-0.04900000000,-0.01000,
-0.04897999688,0.01400,
-0.04896000000,-0.01000,
-0.04894000000,0.00400,
-0.04891999688,0.01800,
-0.04889999688,-0.00600,
-0.04888000000,0.01200,
-0.04886000000,0.00,
-0.04883999688,0.02600,
-0.04882000000,-0.00200,
-0.04880000000,-0.00600,
-0.04877999688,0.01800,
-0.04876000000,-0.00800,
-0.04874000000,0.01600,
-0.04872000000,-0.00800,
-0.04869999688,0.00400,
-0.04868000000,0.00800,
-0.04866000000,0.00800,
-0.04863999688,0.00800,
-0.04862000000,0.00800,
-0.04860000000,-0.00600,
-0.04857999688,0.00400,
-0.04855999688,0.00200,
-0.04854000000,0.01200,
-0.04852000000,0.00800,
-0.04849999688,0.00400,
-0.04848000000,0.01600,
-0.04846000000,0.00200,
-0.04843999688,0.01000,
-0.04841999688,0.01200,
-0.04840000000,-0.00200,
-0.04838000000,0.01000,
-0.04835999688,-0.00600,
-0.04834000000,0.01800,
-0.04832000000,-0.00600,
-0.04829999688,0.00400,
-0.04827999688,0.01600,
-0.04826000000,0.00400,
-0.04824000000,0.01400,
-0.04821999688,0.01200,
-0.04820000000,0.02400,
-0.04818000000,0.00200,
-0.04815999688,-0.00800,
-0.04814000000,0.00600,
-0.04812000000,-0.00400,
-0.04809999688,0.02200,
-0.04807999688,-0.02200,
-0.04806000000,0.02200,
-0.04804000000,0.01600,
-0.04801999688,-0.01400,
-0.04800000000,0.02200,
-0.04798000000,-0.00400,
-0.04795999688,0.01400,
-0.04793999688,-0.01200,
-0.04792000000,0.01000,
-0.04790000000,0.00800,
-0.04787999688,-0.00200,
-0.04786000000,0.00600,
-0.04784000000,0.01200,
-0.04781999688,0.02000,
-0.04779999688,0.00400,
-0.04778000000,0.00600,
-0.04776000000,-0.00200,
-0.04773999688,0.00800,
-0.04772000000,0.00,
-0.04770000000,0.00800,
-0.04767999688,0.00200,
-0.04766000000,0.00,
-0.04764000000,0.01600,
-0.04762000000,0.00400,
-0.04759999688,0.01000,
-0.04758000000,-0.01200,
-0.04756000000,0.00400,
-0.04753999688,-0.00800,
-0.04752000000,-0.01200,
-0.04750000000,0.01000,
-0.04747999688,-0.00200,
-0.04745999688,0.02200,
-0.04744000000,-0.00600,
-0.04742000000,0.01200,
-0.04739999688,0.00800,
-0.04738000000,-0.01000,
-0.04736000000,0.01400,
-0.04733999688,-0.01200,
-0.04731999688,0.01000,
-0.04730000000,-0.00800,
-0.04728000000,0.00600,
-0.04725999688,0.01400,
-0.04724000000,-0.00400,
-0.04722000000,0.01000,
-0.04719999688,-0.01000,
-0.04717999688,0.01400,
-0.04716000000,0.00,
-0.04714000000,0.00400,
-0.04711999688,0.02000,
-0.04710000000,-0.00200,
-0.04708000000,0.01600,
-0.04705999688,0.01200,
-0.04704000000,0.00400,
-0.04702000000,0.01200,
-0.04699999688,0.00800,
-0.04697999688,0.01600,
-0.04696000000,0.00400,
-0.04694000000,-0.01000,
-0.04691999688,0.00800,
-0.04690000000,0.00200,
-0.04688000000,0.00,
-0.04685999688,-0.00400,
-0.04683999688,0.00600,
-0.04682000000,0.01800,
-0.04680000000,-0.00800,
-0.04677999688,0.00600,
-0.04676000000,0.00,
-0.04674000000,0.00400,
-0.04671999688,0.00600,
-0.04669999688,-0.01400,
-0.04668000000,0.00,
-0.04666000000,0.00400,
-0.04663999688,0.00,
-0.04662000000,0.00200,
-0.04660000000,-0.00800,
-0.04657999688,0.01200,
-0.04656000000,-0.00400,
-0.04654000000,-0.00800,
-0.04652000000,0.01200,
-0.04649999688,0.00200,
-0.04648000000,0.02000,
-0.04646000000,-0.00800,
-0.04643999688,0.01400,
-0.04642000000,0.02400,
-0.04640000000,-0.00800,
-0.04637999688,0.02400,
-0.04635999688,0.00,
-0.04634000000,0.02000,
-0.04632000000,0.00600,
-0.04629999688,-0.01800,
-0.04628000000,0.01600,
-0.04626000000,-0.00200,
-0.04623999688,0.01400,
-0.04621999688,-0.00800,
-0.04620000000,0.00200,
-0.04618000000,0.01200,
-0.04615999688,-0.01400,
-0.04614000000,0.01600,
-0.04612000000,-0.00200,
-0.04609999688,0.01800,
-0.04608000000,0.00600,
-0.04606000000,-0.01400,
-0.04604000000,0.03000,
-0.04601999688,-0.00200,
-0.04600000000,0.00200,
-0.04598000000,-0.00200,
-0.04595999688,-0.01400,
-0.04594000000,0.01400,
-0.04592000000,-0.00600,
-0.04589999688,0.01800,
-0.04587999688,0.00400,
-0.04586000000,-0.01200,
-0.04584000000,0.02400,
-0.04581999688,-0.01200,
-0.04580000000,0.02600,
-0.04578000000,0.00600,
-0.04575999688,-0.00600,
-0.04573999688,0.02600,
-0.04572000000,-0.02000,
-0.04570000000,0.02200,
-0.04567999688,0.00400,
-0.04566000000,-0.00600,
-0.04564000000,0.01800,
-0.04561999688,-0.01000,
-0.04559999688,0.03000,
-0.04558000000,-0.01000,
-0.04556000000,0.00200,
-0.04553999688,0.02400,
-0.04552000000,-0.01200,
-0.04550000000,0.01000,
-0.04547999688,0.00400,
-0.04546000000,0.00800,
-0.04544000000,0.01400,
-0.04542000000,-0.00800,
-0.04539999688,0.02200,
-0.04538000000,-0.00400,
-0.04536000000,0.00200,
-0.04533999688,0.01400,
-0.04532000000,-0.00800,
-0.04530000000,0.01200,
-0.04527999688,-0.01200,
-0.04525999688,0.02000,
-0.04524000000,0.00,
-0.04522000000,-0.00600,
-0.04519999688,0.02600,
-0.04518000000,-0.00400,
-0.04516000000,0.01400,
-0.04513999688,0.00200,
-0.04511999688,0.00600,
-0.04510000000,0.01600,
-0.04508000000,-0.00800,
-0.04505999688,0.01200,
-0.04504000000,0.00200,
-0.04502000000,0.00600,
-0.04499999688,0.01200,
-0.04498000000,-0.00200,
-0.04496000000,0.01000,
-0.04494000000,0.00200,
-0.04491999688,0.00400,
-0.04490000000,0.00600,
-0.04488000000,0.00,
-0.04485999688,0.01200,
-0.04484000000,0.00200,
-0.04482000000,0.00800,
-0.04479999688,0.01200,
-0.04477999688,-0.00400,
-0.04476000000,0.01800,
-0.04474000000,0.00400,
-0.04471999688,0.00800,
-0.04470000000,0.01600,
-0.04468000000,0.00,
-0.04465999688,0.01200,
-0.04463999688,0.00800,
-0.04462000000,0.01400,
-0.04460000000,0.01000,
-0.04457999688,0.00200,
-0.04456000000,0.01400,
-0.04454000000,0.00600,
-0.04451999688,0.01000,
-0.04449999688,0.00200,
-0.04448000000,0.01000,
-0.04446000000,0.01200,
-0.04443999688,0.00400,
-0.04442000000,0.01200,
-0.04440000000,0.01000,
-0.04437999688,0.01200,
-0.04436000000,0.01000,
-0.04434000000,0.00400,
-0.04432000000,0.01000,
-0.04429999688,0.00800,
-0.04428000000,0.01400,
-0.04426000000,0.01200,
-0.04423999688,0.01000,
-0.04422000000,0.01400,
-0.04420000000,0.00800,
-0.04417999688,0.01400,
-0.04415999688,0.01200,
-0.04414000000,0.01200,
-0.04412000000,0.01400,
-0.04409999688,0.00600,
-0.04408000000,0.01800,
-0.04406000000,0.01600,
-0.04403999688,0.01600,
-0.04401999688,0.01600,
-0.04400000000,0.01200,
-0.04398000000,0.01600,
-0.04395999688,0.01200,
-0.04394000000,0.01200,
-0.04392000000,0.01200,
-0.04389999688,0.01400,
-0.04388000000,0.01000,
-0.04386000000,0.00800,
-0.04384000000,0.01400,
-0.04381999688,0.01400,
-0.04380000000,0.01600,
-0.04378000000,0.01200,
-0.04375999688,0.01400,
-0.04374000000,0.01000,
-0.04372000000,0.01600,
-0.04369999688,0.00800,
-0.04367999688,0.01800,
-0.04366000000,0.01600,
-0.04364000000,0.02000,
-0.04361999688,0.02200,
-0.04360000000,0.01600,
-0.04358000000,0.01600,
-0.04355999688,0.01600,
-0.04353999688,0.02600,
-0.04352000000,0.01400,
-0.04350000000,0.01400,
-0.04347999688,0.02600,
-0.04346000000,0.01800,
-0.04344000000,0.03400,
-0.04341999688,0.02000,
-0.04339999688,0.03400,
-0.04338000000,0.02800,
-0.04336000000,0.02600,
-0.04333999688,0.03200,
-0.04332000000,0.02800,
-0.04330000000,0.03600,
-0.04327999688,0.03000,
-0.04326000000,0.04000,
-0.04324000000,0.04400,
-0.04322000000,0.03200,
-0.04319999688,0.04800,
-0.04318000000,0.05000,
-0.04316000000,0.06000,
-0.04313999688,0.04800,
-0.04312000000,0.04800,
-0.04310000000,0.04800,
-0.04307999688,0.05400,
-0.04305999688,0.04800,
-0.04304000000,0.05800,
-0.04302000000,0.04800,
-0.04299999688,0.05000,
-0.04298000000,0.06000,
-0.04296000000,0.05000,
-0.04293999688,0.05400,
-0.04291999688,0.04600,
-0.04290000000,0.05600,
-0.04288000000,0.04600,
-0.04285999688,0.04400,
-0.04284000000,0.06400,
-0.04282000000,0.05200,
-0.04279999688,0.07200,
-0.04278000000,0.04800,
-0.04276000000,0.06400,
-0.04274000000,0.06000,
-0.04271999688,0.04200,
-0.04270000000,0.05000,
-0.04268000000,0.03800,
-0.04265999688,0.03800,
-0.04264000000,0.02200,
-0.04262000000,0.03600,
-0.04259999688,0.05000,
-0.04257999688,0.04200,
-0.04256000000,0.07000,
-0.04254000000,0.08000,
-0.04251999688,0.11600,
-0.04250000000,0.10600,
-0.04248000000,0.11200,
-0.04245999688,0.13200,
-0.04243999688,0.12800,
-0.04242000000,0.12000,
-0.04240000000,0.11800,
-0.04237999688,0.11200,
-0.04236000000,0.11000,
-0.04234000000,0.10400,
-0.04231999688,0.09800,
-0.04230000000,0.09200,
-0.04228000000,0.08000,
-0.04226000000,0.08600,
-0.04223999688,0.08600,
-0.04222000000,0.08200,
-0.04220000000,0.09400,
-0.04217999688,0.08600,
-0.04216000000,0.10600,
-0.04214000000,0.09600,
-0.04212000000,0.11200,
-0.04209999688,0.12000,
-0.04208000000,0.10200,
-0.04206000000,0.12200,
-0.04203999688,0.11000,
-0.04202000000,0.12000,
-0.04200000000,0.11600,
-0.04197999688,0.13600,
-0.04195999688,0.14400,
-0.04194000000,0.12600,
-0.04192000000,0.14000,
-0.04189999688,0.13200,
-0.04188000000,0.16000,
-0.04186000000,0.14000,
-0.04183999688,0.14200,
-0.04181999688,0.15600,
-0.04180000000,0.15000,
-0.04178000000,0.16400,
-0.04175999688,0.15200,
-0.04174000000,0.16800,
-0.04172000000,0.16000,
-0.04169999688,0.15800,
-0.04168000000,0.16400,
-0.04166000000,0.15600,
-0.04164000000,0.15600,
-0.04161999688,0.15400,
-0.04160000000,0.15800,
-0.04158000000,0.14800,
-0.04155999688,0.15200,
-0.04154000000,0.15800,
-0.04152000000,0.16600,
-0.04149999688,0.16000,
-0.04147999688,0.15800,
-0.04146000000,0.15200,
-0.04144000000,0.15200,
-0.04141999688,0.16000,
-0.04140000000,0.15000,
-0.04138000000,0.15600,
-0.04135999688,0.15000,
-0.04133999688,0.15400,
-0.04132000000,0.15800,
-0.04130000000,0.14800,
-0.04127999688,0.15200,
-0.04126000000,0.14000,
-0.04124000000,0.15000,
-0.04121999688,0.13600,
-0.04120000000,0.14200,
-0.04118000000,0.14400,
-0.04116000000,0.14000,
-0.04113999688,0.15600,
-0.04112000000,0.15200,
-0.04110000000,0.14200,
-0.04107999688,0.14800,
-0.04106000000,0.14400,
-0.04104000000,0.14800,
-0.04102000000,0.14000,
-0.04099999688,0.13800,
-0.04098000000,0.13400,
-0.04096000000,0.32000,
-0.04093999688,0.12200,
-0.04092000000,0.05200,
-0.04090000000,0.08600,
-0.04087999688,0.09200,
-0.04085999688,0.08200,
-0.04084000000,0.09000,
-0.04082000000,0.07600,
-0.04079999688,0.09200,
-0.04078000000,0.08600,
-0.04076000000,0.08000,
-0.04073999688,0.09000,
-0.04071999688,0.07800,
-0.04070000000,0.08400,
-0.04068000000,0.08000,
-0.04065999688,0.09000,
-0.04064000000,0.08600,
-0.04062000000,0.03400,
-0.04059999688,0.02200,
-0.04058000000,0.00200,
-0.04056000000,0.01000,
-0.04054000000,0.00600,
-0.04051999688,0.00800,
-0.04050000000,0.02400,
-0.04048000000,0.01800,
-0.04045999688,0.02400,
-0.04044000000,0.03800,
-0.04042000000,0.04400,
-0.04039999688,0.06000,
-0.04037999688,0.05600,
-0.04036000000,0.06800,
-0.04034000000,0.08400,
-0.04031999688,0.08200,
-0.04030000000,0.10200,
-0.04028000000,0.08600,
-0.04025999688,0.11400,
-0.04023999688,0.10800,
-0.04022000000,0.10800,
-0.04020000000,0.13600,
-0.04017999688,0.11000,
-0.04016000000,0.14400,
-0.04014000000,0.11600,
-0.04011999688,0.13000,
-0.04010000000,0.15000,
-0.04008000000,0.12400,
-0.04006000000,0.14600,
-0.04003999688,0.12400,
-0.04002000000,0.14000,
-0.04000000000,0.12400,
-0.03997999688,0.10600,
-0.03996000000,0.12800,
-0.03994000000,0.09000,
-0.03992000000,0.08200,
-0.03989999688,0.06000,
-0.03988000000,0.04600,
-0.03986000000,0.05600,
-0.03983999688,0.03800,
-0.03982000000,0.07200,
-0.03980000000,0.08200,
-0.03977999688,0.10200,
-0.03975999688,0.15200,
-0.03974000000,0.15800,
-0.03972000000,0.20200,
-0.03969999688,0.18600,
-0.03968000000,0.19200,
-0.03966000000,0.19800,
-0.03963999688,0.15400,
-0.03961999688,0.17800,
-0.03960000000,0.15000,
-0.03958000000,0.15400,
-0.03955999688,0.14000,
-0.03954000000,0.11400,
-0.03952000000,0.13600,
-0.03949999688,0.10000,
-0.03948000000,0.10600,
-0.03946000000,0.10600,
-0.03944000000,0.10000,
-0.03941999688,0.12400,
-0.03940000000,0.11000,
-0.03938000000,0.13400,
-0.03935999688,0.13200,
-0.03934000000,0.14000,
-0.03932000000,0.16200,
-0.03929999688,0.14400,
-0.03927999688,0.16400,
-0.03926000000,0.15600,
-0.03924000000,0.15200,
-0.03921999688,0.17200,
-0.03920000000,0.14400,
-0.03918000000,0.17200,
-0.03915999688,0.15400,
-0.03913999688,0.15000,
-0.03912000000,0.16800,
-0.03910000000,0.15200,
-0.03907999688,0.16800,
-0.03906000000,0.15200,
-0.03904000000,0.16800,
-0.03901999688,0.17400,
-0.03900000000,0.15400,
-0.03898000000,0.17200,
-0.03896000000,0.15800,
-0.03893999688,0.19200,
-0.03892000000,0.16800,
-0.03890000000,0.16400,
-0.03887999688,0.18600,
-0.03886000000,0.16600,
-0.03884000000,0.18400,
-0.03882000000,0.17400,
-0.03879999688,0.18000,
-0.03878000000,0.18200,
-0.03876000000,0.17000,
-0.03873999688,0.17600,
-0.03872000000,0.17200,
-0.03870000000,0.18000,
-0.03867999688,0.17200,
-0.03865999688,0.16400,
-0.03864000000,0.17400,
-0.03862000000,0.15600,
-0.03859999688,0.16000,
-0.03858000000,0.16200,
-0.03856000000,0.15400,
-0.03853999688,0.16200,
-0.03852000000,0.14000,
-0.03850000000,0.14000,
-0.03848000000,0.14400,
-0.03845999688,0.13800,
-0.03844000000,0.13600,
-0.03842000000,0.13200,
-0.03839999688,0.13800,
-0.03838000000,0.13400,
-0.03836000000,0.13600,
-0.03834000000,0.13600,
-0.03831999688,0.14000,
-0.03830000000,0.14800,
-0.03828000000,0.13000,
-0.03825999688,0.13000,
-0.03824000000,0.13400,
-0.03822000000,0.13600,
-0.03820000000,0.14000,
-0.03817999688,0.13400,
-0.03816000000,0.13400,
-0.03814000000,0.13800,
-0.03811999688,0.12600,
-0.03810000000,0.13200,
-0.03808000000,0.12000,
-0.03805999688,0.11600,
-0.03803999688,0.11400,
-0.03802000000,0.11200,
-0.03800000000,0.12200,
-0.03797999688,0.10600,
-0.03796000000,0.11200,
-0.03794000000,0.11000,
-0.03791999688,0.09800,
-0.03790000000,0.10400,
-0.03788000000,0.08800,
-0.03786000000,0.10600,
-0.03783999688,0.10000,
-0.03782000000,0.09800,
-0.03780000000,0.10600,
-0.03777999688,0.09600,
-0.03776000000,0.10600,
-0.03774000000,0.10200,
-0.03772000000,0.11200,
-0.03769999688,0.10200,
-0.03768000000,0.09800,
-0.03766000000,0.11200,
-0.03763999688,0.10000,
-0.03762000000,0.10800,
-0.03760000000,0.09400,
-0.03757999688,0.10400,
-0.03755999688,0.09800,
-0.03754000000,0.09600,
-0.03752000000,0.09800,
-0.03749999688,0.10200,
-0.03748000000,0.09600,
-0.03746000000,0.09600,
-0.03743999688,0.09200,
-0.03742000000,0.08400,
-0.03740000000,0.08600,
-0.03738000000,0.08400,
-0.03735999688,0.09000,
-0.03734000000,0.07600,
-0.03732000000,0.07600,
-0.03729999688,0.05800,
-0.03728000000,0.05600,
-0.03726000000,0.05600,
-0.03724000000,0.04200,
-0.03721999688,0.05600,
-0.03720000000,0.04200,
-0.03718000000,0.03600,
-0.03715999688,0.04200,
-0.03714000000,0.02400,
-0.03712000000,0.02600,
-0.03710000000,0.01600,
-0.03707999688,0.02000,
-0.03706000000,0.01400,
-0.03704000000,0.01000,
-0.03701999688,0.03400,
-0.03700000000,0.02800,
-0.03698000000,0.04000,
-0.03695999688,0.02800,
-0.03693999688,0.04200,
-0.03692000000,0.04600,
-0.03690000000,0.02600,
-0.03687999688,0.02600,
-0.03686000000,0.01800,
-0.03684000000,0.01600,
-0.03681999688,0.01200,
-0.03680000000,0.01800,
-0.03678000000,0.01400,
-0.03676000000,0.01400,
-0.03673999688,0.01400,
-0.03672000000,0.01800,
-0.03670000000,0.02000,
-0.03667999688,0.01600,
-0.03666000000,0.02000,
-0.03664000000,0.01600,
-0.03662000000,0.01800,
-0.03659999688,0.00800,
-0.03658000000,0.01400,
-0.03656000000,0.01200,
-0.03653999688,0.00800,
-0.03652000000,0.01800,
-0.03650000000,0.01200,
-0.03647999688,0.01400,
-0.03645999688,0.00600,
-0.03644000000,0.02200,
-0.03642000000,0.00800,
-0.03639999688,0.00600,
-0.03638000000,0.01600,
-0.03636000000,0.00800,
-0.03633999688,0.02000,
-0.03632000000,0.00800,
-0.03630000000,0.01600,
-0.03628000000,0.01800,
-0.03625999688,0.00400,
-0.03624000000,0.01400,
-0.03622000000,0.00400,
-0.03619999688,0.01800,
-0.03618000000,0.00800,
-0.03616000000,0.00800,
-0.03614000000,0.03000,
-0.03611999688,0.00600,
-0.03610000000,0.01400,
-0.03608000000,0.01400,
-0.03605999688,0.02400,
-0.03604000000,0.00800,
-0.03602000000,0.01200,
-0.03600000000,0.02200,
-0.03597999688,0.01000,
-0.03596000000,0.03800,
-0.03594000000,0.00600,
-0.03591999688,0.03000,
-0.03590000000,0.01800,
-0.03588000000,0.03400,
-0.03585999688,0.02000,
-0.03584000000,0.01600,
-0.03582000000,0.02000,
-0.03580000000,0.04200,
-0.03577999688,0.02800,
-0.03576000000,0.01400,
-0.03574000000,0.01600,
-0.03571999688,0.01800,
-0.03570000000,0.09400,
-0.03568000000,0.03000,
-0.03566000000,0.10600,
-0.03563999688,0.01800,
-0.03562000000,0.05400,
-0.03560000000,0.01600,
-0.03557999688,0.08400,
-0.03556000000,0.02000,
-0.03554000000,0.10000,
-0.03552000000,0.02200,
-0.03549999688,0.11000,
-0.03548000000,0.02400,
-0.03546000000,0.04200,
-0.03543999688,0.10000,
-0.03542000000,0.11000,
-0.03540000000,0.08200,
-0.03537999688,0.07400,
-0.03535999688,0.08400,
-0.03534000000,0.06200,
-0.03532000000,0.08200,
-0.03529999688,0.06800,
-0.03528000000,0.06800,
-0.03526000000,0.08400,
-0.03523999688,0.06200,
-0.03522000000,0.08000,
-0.03520000000,0.06800,
-0.03518000000,0.06000,
-0.03515999688,0.07200,
-0.03514000000,0.06400,
-0.03512000000,0.07000,
-0.03509999688,0.06000,
-0.03508000000,0.07200,
-0.03506000000,0.07600,
-0.03504000000,0.05600,
-0.03501999688,0.07400,
-0.03500000000,0.05600,
-0.03498000000,0.08200,
-0.03495999688,0.06400,
-0.03494000000,0.04800,
-0.03492000000,0.08000,
-0.03490000000,0.05600,
-0.03487999688,0.06600,
-0.03486000000,0.06400,
-0.03484000000,0.06200,
-0.03481999688,0.07000,
-0.03480000000,0.05800,
-0.03478000000,0.07200,
-0.03475999688,0.06000,
-0.03474000000,0.06600,
-0.03472000000,0.07200,
-0.03470000000,0.05200,
-0.03467999688,0.07400,
-0.03466000000,0.06000,
-0.03464000000,0.05400,
-0.03461999688,0.07600,
-0.03460000000,0.04800,
-0.03458000000,0.07000,
-0.03456000000,0.05600,
-0.03453999688,0.04800,
-0.03452000000,0.07200,
-0.03450000000,0.05200,
-0.03447999688,0.07000,
-0.03446000000,0.04600,
-0.03444000000,0.06400,
-0.03442000000,0.07400,
-0.03439999688,0.05200,
-0.03438000000,0.07200,
-0.03436000000,0.05400,
-0.03433999688,0.07800,
-0.03432000000,0.06400,
-0.03430000000,0.05800,
-0.03427999688,0.09200,
-0.03425999688,0.05600,
-0.03424000000,0.06800,
-0.03422000000,0.05200,
-0.03419999688,0.05800,
-0.03418000000,0.05800,
-0.03416000000,0.03600,
-0.03413999688,0.06200,
-0.03412000000,0.04400,
-0.03410000000,0.05400,
-0.03408000000,0.05400,
-0.03405999688,0.04800,
-0.03404000000,0.05800,
-0.03402000000,0.03800,
-0.03399999688,0.06000,
-0.03398000000,0.06000,
-0.03396000000,0.04600,
-0.03394000000,0.06600,
-0.03391999688,0.04400,
-0.03390000000,0.05800,
-0.03388000000,0.05400,
-0.03385999688,0.05200,
-0.03384000000,0.07200,
-0.03382000000,0.04400,
-0.03380000000,0.05600,
-0.03377999688,0.04800,
-0.03376000000,0.05400,
-0.03374000000,0.05400,
-0.03371999688,0.04800,
-0.03370000000,0.07200,
-0.03368000000,0.04400,
-0.03365999688,0.05000,
-0.03364000000,0.05400,
-0.03362000000,0.04200,
-0.03360000000,0.05800,
-0.03357999688,0.04600,
-0.03356000000,0.05400,
-0.03354000000,0.05200,
-0.03351999688,0.05000,
-0.03350000000,0.05600,
-0.03348000000,0.05000,
-0.03346000000,0.04800,
-0.03343999688,0.05400,
-0.03342000000,0.06000,
-0.03340000000,0.06200,
-0.03337999688,0.04600,
-0.03336000000,0.00800,
-0.03334000000,-0.01200,
-0.03332000000,0.03400,
-0.03329999688,-0.00600,
-0.03328000000,0.04200,
-0.03326000000,-0.00400,
-0.03323999688,-0.00200,
-0.03322000000,-0.00200,
-0.03320000000,-0.00200,
-0.03317999688,0.01600,
-0.03315999688,-0.00400,
-0.03314000000,-0.01200,
-0.03312000000,0.00400,
-0.03309999688,-0.01800,
-0.03308000000,0.02800,
-0.03306000000,0.00800,
-0.03303999688,-0.02000,
-0.03302000000,0.02200,
-0.03300000000,-0.01000,
-0.03298000000,0.01400,
-0.03295999688,0.01000,
-0.03294000000,-0.01400,
-0.03292000000,0.02400,
-0.03289999688,0.00,
-0.03288000000,0.32000,
-0.03286000000,0.32000,
-0.03284000000,0.05000,
-0.03281999688,-0.00600,
-0.03280000000,-0.01600,
-0.03278000000,0.01000,
-0.03275999688,0.00400,
-0.03274000000,-0.00600,
-0.03272000000,0.01200,
-0.03270000000,0.00,
-0.03267999688,-0.00400,
-0.03266000000,0.00800,
-0.03264000000,-0.00800,
-0.03261999688,0.00600,
-0.03260000000,-0.00200,
-0.03258000000,0.00400,
-0.03255999688,0.01200,
-0.03254000000,0.00,
-0.03252000000,0.00800,
-0.03250000000,0.01000,
-0.03247999688,0.01400,
-0.03246000000,0.00400,
-0.03244000000,-0.00800,
-0.03241999688,0.00600,
-0.03240000000,0.00,
-0.03238000000,0.00400,
-0.03236000000,0.00400,
-0.03233999688,0.00,
-0.03232000000,0.01800,
-0.03230000000,0.00400,
-0.03227999688,0.01000,
-0.03226000000,0.00600,
-0.03224000000,-0.00200,
-0.03222000000,0.01400,
-0.03219999688,-0.00200,
-0.03218000000,0.01200,
-0.03216000000,-0.00600,
-0.03213999688,0.00600,
-0.03212000000,0.01800,
-0.03210000000,-0.01400,
-0.03207999688,-0.00200,
-0.03206000000,-0.00200,
-0.03204000000,0.01400,
-0.03202000000,-0.00200,
-0.03199999688,-0.00400,
-0.03198000000,0.00800,
-0.03196000000,-0.00200,
-0.03193999688,0.01200,
-0.03192000000,0.00600,
-0.03190000000,0.01600,
-0.03188000000,0.00200,
-0.03185999688,0.02000,
-0.03184000000,0.01000,
-0.03182000000,0.00600,
-0.03179999688,0.00200,
-0.03178000000,0.00600,
-0.03176000000,0.00200,
-0.03174000000,-0.00200,
-0.03171999688,0.00400,
-0.03170000000,0.00200,
-0.03168000000,0.02000,
-0.03165999688,0.00200,
-0.03164000000,0.01400,
-0.03162000000,0.01000,
-0.03160000000,-0.00200,
-0.03157999688,0.01400,
-0.03156000000,0.00400,
-0.03154000000,0.01200,
-0.03151999688,0.00200,
-0.03150000000,0.01200,
-0.03148000000,0.00800,
-0.03145999688,-0.01000,
-0.03144000000,0.01200,
-0.03142000000,-0.01600,
-0.03140000000,0.01800,
-0.03137999688,-0.01800,
-0.03136000000,-0.00800,
-0.03134000000,0.02600,
-0.03131999688,-0.01000,
-0.03130000000,0.02400,
-0.03128000000,-0.01000,
-0.03126000000,0.02600,
-0.03124000000,-0.00600,
-0.03121999688,-0.01000,
-0.03120000000,0.02000,
-0.03118000000,0.00,
-0.03116000000,0.00600,
-0.03114000000,-0.00800,
-0.03112000000,0.01000,
-0.03110000000,0.02200,
-0.03108000000,-0.00200,
-0.03106000000,0.01200,
-0.03104000000,0.00400,
-0.03102000000,0.02000,
-0.03100000000,0.00,
-0.03097999688,0.00400,
-0.03096000000,-0.00600,
-0.03094000000,0.00,
-0.03092000000,0.00400,
-0.03090000000,0.01400,
-0.03088000000,0.00400,
-0.03086000000,0.00600,
-0.03084000000,0.00600,
-0.03082000000,0.00,
-0.03080000000,0.00600,
-0.03078000000,-0.01400,
-0.03076000000,0.00800,
-0.03074000000,-0.01800,
-0.03072000000,0.00,
-0.03070000000,0.02400,
-0.03068000000,-0.00600,
-0.03066000000,0.02600,
-0.03064000000,-0.01800,
-0.03062000000,0.01600,
-0.03059999688,-0.01000,
-0.03058000000,-0.02000,
-0.03056000000,0.01800,
-0.03054000000,-0.00400,
-0.03052000000,0.02400,
-0.03050000000,-0.02400,
-0.03048000000,0.02000,
-0.03046000000,0.02400,
-0.03044000000,-0.01600,
-0.03042000000,0.02200,
-0.03040000000,-0.01000,
-0.03038000000,0.02800,
-0.03035999688,-0.01200,
-0.03034000000,0.00200,
-0.03032000000,0.01600,
-0.03030000000,-0.00400,
-0.03028000000,0.00800,
-0.03026000000,0.00400,
-0.03024000000,0.02200,
-0.03022000000,0.00,
-0.03020000000,0.00400,
-0.03018000000,0.01000,
-0.03016000000,0.00200,
-0.03014000000,-0.00800,
-0.03011999688,0.00400,
-0.03010000000,-0.00400,
-0.03008000000,0.00,
-0.03006000000,0.01400,
-0.03004000000,0.00,
-0.03002000000,0.02000,
-0.03000000000,-0.00200,
-0.02998000000,0.00600,
-0.02996000000,-0.00200,
-0.02994000000,-0.01000,
-0.02992000000,0.01000,
-0.02990000000,0.00,
-0.02987999688,0.02000,
-0.02986000000,-0.00400,
-0.02984000000,0.00600,
-0.02982000000,0.01400,
-0.02980000000,0.00,
-0.02978000000,0.01400,
-0.02976000000,-0.00800,
-0.02974000000,0.00400,
-0.02972000000,-0.00200,
-0.02970000000,0.00,
-0.02968000000,0.00600,
-0.02966000000,-0.00600,
-0.02964000000,0.01200,
-0.02962000000,0.00600,
-0.02960000000,0.00800,
-0.02958000000,0.00400,
-0.02956000000,0.00600,
-0.02954000000,0.01400,
-0.02952000000,0.00200,
-0.02950000000,-0.00600,
-0.02948000000,0.00600,
-0.02946000000,-0.00200,
-0.02944000000,0.01400,
-0.02942000000,-0.00400,
-0.02940000000,0.00800,
-0.02938000000,0.01800,
-0.02936000000,-0.00400,
-0.02934000000,0.00600,
-0.02932000000,0.00,
-0.02930000000,0.00200,
-0.02928000000,0.00200,
-0.02925999688,-0.00600,
-0.02924000000,0.01000,
-0.02922000000,-0.00200,
-0.02920000000,0.00,
-0.02918000000,-0.00200,
-0.02916000000,0.01600,
-0.02914000000,0.01000,
-0.02912000000,-0.01200,
-0.02910000000,0.00600,
-0.02908000000,0.01000,
-0.02906000000,-0.00200,
-0.02904000000,0.01200,
-0.02901999688,-0.01200,
-0.02900000000,0.01400,
-0.02898000000,0.01800,
-0.02896000000,-0.00400,
-0.02894000000,0.01000,
-0.02892000000,0.00,
-0.02890000000,0.02000,
-0.02888000000,0.00,
-0.02886000000,-0.00600,
-0.02884000000,0.01600,
-0.02882000000,-0.00200,
-0.02880000000,0.02400,
-0.02877999688,-0.00800,
-0.02876000000,0.00800,
-0.02874000000,0.01400,
-0.02872000000,-0.00800,
-0.02870000000,0.00600,
-0.02868000000,0.00200,
-0.02866000000,0.01200,
-0.02864000000,0.00200,
-0.02862000000,-0.00600,
-0.02860000000,0.02200,
-0.02858000000,-0.00400,
-0.02856000000,0.00600,
-0.02854000000,0.00600,
-0.02852000000,0.00400,
-0.02850000000,0.01000,
-0.02848000000,-0.00200,
-0.02846000000,0.01400,
-0.02844000000,0.00800,
-0.02842000000,-0.00400,
-0.02840000000,0.02000,
-0.02838000000,-0.00200,
-0.02836000000,0.01000,
-0.02834000000,0.00800,
-0.02832000000,0.00200,
-0.02830000000,0.01000,
-0.02828000000,0.00,
-0.02826000000,0.01800,
-0.02824000000,0.00,
-0.02822000000,0.00,
-0.02820000000,0.01800,
-0.02818000000,0.00200,
-0.02816000000,0.01600,
-0.02814000000,-0.00200,
-0.02812000000,0.01000,
-0.02810000000,0.00800,
-0.02808000000,-0.00200,
-0.02806000000,0.01200,
-0.02804000000,0.00200,
-0.02802000000,0.01400,
-0.02800000000,0.00600,
-0.02798000000,0.00200,
-0.02796000000,0.01800,
-0.02794000000,-0.00200,
-0.02791999688,0.01400,
-0.02790000000,0.01000,
-0.02788000000,0.01000,
-0.02786000000,0.01000,
-0.02784000000,-0.00400,
-0.02782000000,0.02600,
-0.02780000000,0.00800,
-0.02778000000,0.01000,
-0.02776000000,0.02600,
-0.02774000000,0.00400,
-0.02772000000,0.01800,
-0.02770000000,0.00200,
-0.02767999688,0.01800,
-0.02766000000,0.01400,
-0.02764000000,0.00,
-0.02762000000,0.01800,
-0.02760000000,0.00400,
-0.02758000000,0.01800,
-0.02756000000,0.00800,
-0.02754000000,0.01000,
-0.02752000000,0.01800,
-0.02750000000,0.00400,
-0.02748000000,0.01400,
-0.02746000000,0.00800,
-0.02744000000,0.01200,
-0.02742000000,0.01600,
-0.02740000000,0.00400,
-0.02738000000,0.01600,
-0.02736000000,0.00800,
-0.02734000000,0.00600,
-0.02732000000,0.01400,
-0.02730000000,0.01000,
-0.02728000000,0.02000,
-0.02726000000,0.01400,
-0.02724000000,0.01200,
-0.02722000000,0.01400,
-0.02720000000,0.01400,
-0.02718000000,0.02600,
-0.02716000000,0.01000,
-0.02714000000,0.01600,
-0.02712000000,0.01400,
-0.02710000000,0.00800,
-0.02708000000,0.02200,
-0.02706000000,0.00600,
-0.02704000000,0.02200,
-0.02702000000,0.01600,
-0.02700000000,0.00600,
-0.02698000000,0.02000,
-0.02696000000,0.01200,
-0.02694000000,0.01800,
-0.02692000000,0.01600,
-0.02690000000,0.01600,
-0.02688000000,0.02400,
-0.02686000000,0.01400,
-0.02684000000,0.02200,
-0.02681999688,0.01800,
-0.02680000000,0.02400,
-0.02678000000,0.02400,
-0.02676000000,0.01400,
-0.02674000000,0.02600,
-0.02672000000,0.02400,
-0.02670000000,0.02400,
-0.02668000000,0.03200,
-0.02666000000,0.02600,
-0.02664000000,0.03600,
-0.02662000000,0.03400,
-0.02660000000,0.03800,
-0.02657999688,0.03800,
-0.02656000000,0.03800,
-0.02654000000,0.04800,
-0.02652000000,0.04200,
-0.02650000000,0.05000,
-0.02648000000,0.04600,
-0.02646000000,0.05400,
-0.02644000000,0.05600,
-0.02642000000,0.04600,
-0.02640000000,0.05600,
-0.02638000000,0.05000,
-0.02636000000,0.05000,
-0.02634000000,0.04800,
-0.02632000000,0.04800,
-0.02630000000,0.04800,
-0.02628000000,0.04800,
-0.02626000000,0.05000,
-0.02624000000,0.05800,
-0.02622000000,0.05600,
-0.02620000000,0.05800,
-0.02617999844,0.06000,
-0.02616000000,0.05600,
-0.02613999844,0.06200,
-0.02612000000,0.05000,
-0.02609999844,0.06000,
-0.02608000000,0.05000,
-0.02606000000,0.04600,
-0.02603999844,0.05800,
-0.02602000000,0.04000,
-0.02599999844,0.04600,
-0.02598000000,0.03600,
-0.02596000000,0.04200,
-0.02593999844,0.03600,
-0.02592000000,0.03600,
-0.02589999844,0.06400,
-0.02588000000,0.06600,
-0.02585999844,0.09200,
-0.02584000000,0.08600,
-0.02582000000,0.11400,
-0.02579999844,0.13400,
-0.02578000000,0.12200,
-0.02575999844,0.13400,
-0.02574000000,0.12400,
-0.02572000000,0.12600,
-0.02569999844,0.09600,
-0.02568000000,0.10600,
-0.02565999844,0.09800,
-0.02564000000,0.09200,
-0.02561999844,0.09000,
-0.02560000000,0.09000,
-0.02558000000,0.09400,
-0.02555999844,0.08600,
-0.02554000000,0.08800,
-0.02551999844,0.09400,
-0.02550000000,0.09600,
-0.02547999844,0.09400,
-0.02545999844,0.09800,
-0.02544000000,0.09800,
-0.02541999844,0.10200,
-0.02540000000,0.12600,
-0.02537999844,0.12000,
-0.02536000000,0.12800,
-0.02534000000,0.11600,
-0.02531999844,0.13200,
-0.02530000000,0.12200,
-0.02527999844,0.12000,
-0.02526000000,0.14600,
-0.02523999844,0.13600,
-0.02522000000,0.15000,
-0.02520000000,0.13000,
-0.02517999844,0.15600,
-0.02516000000,0.17000,
-0.02513999844,0.14200,
-0.02512000000,0.16600,
-0.02510000000,0.14200,
-0.02507999844,0.17200,
-0.02506000000,0.14000,
-0.02503999844,0.15200,
-0.02502000000,0.16400,
-0.02499999844,0.14800,
-0.02498000000,0.16000,
-0.02496000000,0.15400,
-0.02493999844,0.17000,
-0.02492000000,0.15200,
-0.02489999844,0.15200,
-0.02488000000,0.16600,
-0.02486000000,0.15000,
-0.02483999844,0.15400,
-0.02482000000,0.14200,
-0.02479999844,0.16000,
-0.02478000000,0.16000,
-0.02475999844,0.16200,
-0.02474000000,0.15400,
-0.02472000000,0.16400,
-0.02469999844,0.15000,
-0.02468000000,0.16000,
-0.02465999844,0.15000,
-0.02464000000,0.14200,
-0.02462000000,0.15400,
-0.02459999844,0.14600,
-0.02458000000,0.15200,
-0.02455999844,0.13600,
-0.02454000000,0.14600,
-0.02451999844,0.15200,
-0.02450000000,0.12800,
-0.02448000000,0.14400,
-0.02445999844,0.12600,
-0.02444000000,0.15200,
-0.02441999844,0.13400,
-0.02440000000,0.13800,
-0.02438000000,0.14600,
-0.02436000000,0.13200,
-0.02434000000,0.14400,
-0.02431999844,0.14000,
-0.02430000000,0.14600,
-0.02427999844,0.32000,
-0.02426000000,0.25400,
-0.02424000000,0.08400,
-0.02421999844,0.06600,
-0.02420000000,0.09000,
-0.02417999844,0.08600,
-0.02416000000,0.09200,
-0.02413999844,0.09200,
-0.02412000000,0.08600,
-0.02410000000,0.08600,
-0.02407999844,0.08800,
-0.02406000000,0.08600,
-0.02403999844,0.08400,
-0.02402000000,0.08000,
-0.02400000000,0.08000,
-0.02397999844,0.08400,
-0.02396000000,0.06800,
-0.02393999844,0.03000,
-0.02392000000,0.00800,
-0.02389999844,0.00200,
-0.02388000000,0.00800,
-0.02386000000,0.00800,
-0.02383999844,0.01400,
-0.02382000000,0.01000,
-0.02379999844,0.02400,
-0.02378000000,0.02800,
-0.02376000000,0.03600,
-0.02373999844,0.05200,
-0.02372000000,0.05800,
-0.02369999844,0.07600,
-0.02368000000,0.08400,
-0.02365999844,0.08800,
-0.02364000000,0.09000,
-0.02362000000,0.10200,
-0.02359999844,0.10800,
-0.02358000000,0.10400,
-0.02355999844,0.11800,
-0.02354000000,0.11400,
-0.02352000000,0.11800,
-0.02349999844,0.13000,
-0.02348000000,0.12400,
-0.02345999844,0.14200,
-0.02344000000,0.13600,
-0.02341999844,0.12000,
-0.02340000000,0.14000,
-0.02338000000,0.13200,
-0.02335999844,0.13400,
-0.02334000000,0.12200,
-0.02331999844,0.12800,
-0.02330000000,0.12200,
-0.02328000000,0.10000,
-0.02326000000,0.09400,
-0.02324000000,0.07200,
-0.02321999844,0.07400,
-0.02320000000,0.05000,
-0.02317999844,0.04000,
-0.02316000000,0.06200,
-0.02314000000,0.06200,
-0.02311999844,0.09000,
-0.02310000000,0.11200,
-0.02307999844,0.15000,
-0.02306000000,0.18400,
-0.02304000000,0.18400,
-0.02302000000,0.20200,
-0.02300000000,0.19000,
-0.02297999844,0.18600,
-0.02296000000,0.17200,
-0.02293999844,0.16200,
-0.02292000000,0.16600,
-0.02290000000,0.13600,
-0.02287999844,0.12800,
-0.02286000000,0.12400,
-0.02283999844,0.10400,
-0.02282000000,0.11400,
-0.02279999844,0.09800,
-0.02278000000,0.10200,
-0.02276000000,0.11200,
-0.02273999844,0.10200,
-0.02272000000,0.13000,
-0.02269999844,0.11600,
-0.02268000000,0.14600,
