Source,CH3
Second,Volt
-0.06144000000,0.11200,
-0.06143000000,0.10600,
-0.06142000000,0.10200,
-0.06141000000,0.10600,
-0.06140000000,0.09000,
-0.06139000000,0.10400,
-0.06138000000,0.10400,
-0.06137000000,0.09600,
-0.06136000000,0.09400,
-0.06135000000,0.10000,
-0.06133999375,0.10000,
-0.06133000000,0.09000,
-0.06132000000,0.08800,
-0.06131000000,0.09000,
-0.06130000000,0.09800,
-0.06129000000,0.09400,
-0.06128000000,0.10000,
-0.06127000000,0.08000,
-0.06126000000,0.08800,
-0.06125000000,0.09400,
-0.06124000000,0.09600,
-0.06123000000,0.09400,
-0.06122000000,0.09400,
-0.06121000000,0.10400,
-0.06119999375,0.09600,
-0.06119000000,0.10000,
-0.06118000000,0.08600,
-0.06116999375,0.10200,
-0.06116000000,0.10200,
-0.06115000000,0.11000,
-0.06114000000,0.09600,
-0.06113000000,0.08800,
-0.06112000000,0.09600,
-0.06111000000,0.10200,
-0.06110000000,0.10200,
-0.06109000000,0.09000,
-0.06108000000,0.10000,
-0.06107000000,0.10600,
-0.06106000000,0.11000,
-0.06105000000,0.09200,
-0.06104000000,0.09400,
-0.06102999375,0.09600,
-0.06102000000,0.09600,
-0.06101000000,0.10400,
-0.06100000000,0.10000,
-0.06099000000,0.09000,
-0.06098000000,0.09800,
-0.06097000000,0.09800,
-0.06096000000,0.09600,
-0.06095000000,0.09200,
-0.06094000000,0.08800,
-0.06093000000,0.11200,
-0.06092000000,0.09000,
-0.06091000000,0.08400,
-0.06090000000,0.08600,
-0.06089000000,0.08200,
-0.06088000000,0.10400,
-0.06087000000,0.10200,
-0.06085999375,0.09200,
-0.06085000000,0.08600,
-0.06084000000,0.10000,
-0.06083000000,0.09800,
-0.06082000000,0.08600,
-0.06081000000,0.07400,
-0.06080000000,0.09600,
-0.06079000000,0.10000,
-0.06078000000,0.08400,
-0.06077000000,0.09400,
-0.06076000000,0.08000,
-0.06075000000,0.08800,
-0.06074000000,0.09400,
-0.06073000000,0.09200,
-0.06071999375,0.08400,
-0.06071000000,0.08800,
-0.06070000000,0.09400,
-0.06069000000,0.08800,
-0.06068000000,0.07600,
-0.06067000000,0.08000,
-0.06066000000,0.09800,
-0.06065000000,0.08800,
-0.06064000000,0.10200,
-0.06063000000,0.08200,
-0.06062000000,0.07400,
-0.06061000000,0.08200,
-0.06060000000,0.09200,
-0.06059000000,0.08600,
-0.06058000000,0.07800,
-0.06057000000,0.09200,
-0.06056000000,0.10000,
-0.06054999375,0.09600,
-0.06054000000,0.07600,
-0.06053000000,0.08600,
-0.06052000000,0.09200,
-0.06051000000,0.09000,
-0.06050000000,0.09600,
-0.06049000000,0.08200,
-0.06048000000,0.08400,
-0.06047000000,0.09000,
-0.06046000000,0.08800,
-0.06045000000,0.07800,
-0.06044000000,0.08400,
-0.06043000000,0.09400,
-0.06042000000,0.10200,
-0.06040999375,0.08000,
-0.06040000000,0.08000,
-0.06039000000,0.08400,
-0.06038000000,0.07800,
-0.06037000000,0.09800,
-0.06036000000,0.09600,
-0.06035000000,0.08000,
-0.06034000000,0.08200,
-0.06033000000,0.09000,
-0.06032000000,0.09200,
-0.06031000000,0.07800,
-0.06030000000,0.07000,
-0.06029000000,0.10200,
-0.06028000000,0.09000,
-0.06027000000,0.08000,
-0.06026000000,0.08800,
-0.06025000000,0.07800,
-0.06023999375,-0.18800,
-0.06023000000,0.32000,
-0.06022000000,0.32000,
-0.06021000000,0.32000,
-0.06020000000,0.17600,
-0.06019000000,0.32000,
-0.06018000000,0.19200,
-0.06017000000,0.17200,
-0.06016000000,0.20800,
-0.06015000000,0.20200,
-0.06014000000,0.20000,
-0.06013000000,0.20800,
-0.06012000000,0.18200,
-0.06011000000,0.18600,
-0.06009999375,0.19600,
-0.06009000000,0.20000,
-0.06008000000,0.18600,
-0.06006999375,0.18000,
-0.06006000000,0.20200,
-0.06005000000,0.18600,
-0.06004000000,0.18200,
-0.06003000000,0.17200,
-0.06002000000,0.19400,
-0.06001000000,0.18800,
-0.06000000000,0.19200,
-0.05999000000,0.18600,
-0.05998000000,0.16200,
-0.05997000000,0.17200,
-0.05996000000,0.18800,
-0.05995000000,0.17600,
-0.05994000000,0.16200,
-0.05992999375,0.17400,
-0.05992000000,0.18400,
-0.05991000000,0.19200,
-0.05990000000,0.15400,
-0.05989000000,0.17200,
-0.05988000000,0.17200,
-0.05987000000,0.16800,
-0.05986000000,0.18200,
-0.05985000000,0.16000,
-0.05984000000,0.15400,
-0.05983000000,0.16400,
-0.05982000000,0.17200,
-0.05981000000,0.15000,
-0.05980000000,0.15600,
-0.05979000000,0.16000,
-0.05978000000,0.17600,
-0.05977000000,0.14600,
-0.05975999375,0.15000,
-0.05975000000,0.15600,
-0.05974000000,0.14200,
-0.05973000000,0.17000,
-0.05972000000,0.16000,
-0.05971000000,0.14400,
-0.05970000000,0.14400,
-0.05969000000,0.15600,
-0.05968000000,0.16000,
-0.05967000000,0.13600,
-0.05966000000,0.13800,
-0.05965000000,0.15400,
-0.05964000000,0.15000,
-0.05963000000,0.13600,
-0.05961999375,0.14600,
-0.05961000000,0.12800,
-0.05960000000,0.14200,
-0.05959000000,0.14600,
-0.05958000000,0.14400,
-0.05957000000,0.13000,
-0.05956000000,0.14000,
-0.05955000000,0.15000,
-0.05954000000,0.12800,
-0.05953000000,0.12200,
-0.05952000000,0.13200,
-0.05951000000,0.14000,
-0.05950000000,0.12800,
-0.05949000000,0.14000,
-0.05948000000,0.12000,
-0.05947000000,0.11800,
-0.05946000000,0.12600,
-0.05944999375,0.13800,
-0.05944000000,0.12400,
-0.05943000000,0.11400,
-0.05942000000,0.13600,
-0.05941000000,0.11800,
-0.05940000000,0.12400,
-0.05939000000,0.11000,
-0.05938000000,0.11800,
-0.05937000000,0.11600,
-0.05936000000,0.12400,
-0.05935000000,0.12200,
-0.05934000000,0.10800,
-0.05933000000,0.10800,
-0.05932000000,0.12000,
-0.05930999375,0.11800,
-0.05930000000,0.09800,
-0.05929000000,0.11400,
-0.05928000000,0.11200,
-0.05927000000,0.11800,
-0.05926000000,0.10200,
-0.05925000000,0.10800,
-0.05924000000,0.10200,
-0.05923000000,0.10600,
-0.05922000000,0.11800,
-0.05921000000,0.11200,
-0.05920000000,0.09600,
-0.05919000000,0.10200,
-0.05918000000,0.10600,
-0.05917000000,0.10400,
-0.05916000000,0.09200,
-0.05915000000,0.10600,
-0.05913999375,0.10800,
-0.05913000000,0.09600,
-0.05912000000,0.09600,
-0.05911000000,0.10600,
-0.05910000000,0.08800,
-0.05909000000,0.10600,
-0.05908000000,0.09800,
-0.05907000000,0.10000,
-0.05906000000,0.08600,
-0.05905000000,0.10000,
-0.05904000000,0.10800,
-0.05903000000,0.08000,
-0.05902000000,0.09400,
-0.05901000000,0.09000,
-0.05900000000,0.09200,
-0.05899000000,0.08600,
-0.05898000000,0.09800,
-0.05896999375,0.08800,
-0.05896000000,0.09400,
-0.05895000000,0.08800,
-0.05894000000,0.09200,
-0.05893000000,0.08800,
-0.05892000000,0.09200,
-0.05891000000,0.09400,
-0.05890000000,0.08200,
-0.05889000000,0.08400,
-0.05888000000,0.08400,
-0.05887000000,0.08000,
-0.05886000000,0.08000,
-0.05885000000,0.08200,
-0.05884000000,0.07600,
-0.05882999375,0.07600,
-0.05882000000,0.07600,
-0.05881000000,0.08400,
-0.05880000000,0.08000,
-0.05879000000,0.07400,
-0.05878000000,0.08600,
-0.05877000000,0.07400,
-0.05876000000,0.08200,
-0.05875000000,0.08400,
-0.05874000000,0.08600,
-0.05873000000,0.08000,
-0.05872000000,0.08600,
-0.05871000000,0.08400,
-0.05870000000,0.08600,
-0.05869000000,0.07600,
-0.05868000000,0.08000,
-0.05867000000,0.07400,
-0.05865999375,0.06000,
-0.05865000000,0.06400,
-0.05864000000,0.06400,
-0.05863000000,0.06000,
-0.05862000000,0.05800,
-0.05861000000,0.06200,
-0.05860000000,0.07000,
-0.05859000000,0.06400,
-0.05858000000,0.06000,
-0.05857000000,0.06400,
-0.05856000000,0.07600,
-0.05855000000,0.05400,
-0.05854000000,0.05200,
-0.05853000000,0.07400,
-0.05851999375,0.05600,
-0.05851000000,0.06000,
-0.05850000000,0.07200,
-0.05849000000,0.04600,
-0.05848000000,0.04800,
-0.05847000000,0.07000,
-0.05846000000,0.06600,
-0.05845000000,0.05200,
-0.05844000000,0.04400,
-0.05843000000,0.06800,
-0.05842000000,0.04200,
-0.05841000000,0.05000,
-0.05840000000,0.06600,
-0.05839000000,0.03200,
-0.05838000000,0.04400,
-0.05837000000,0.05800,
-0.05836000000,0.04800,
-0.05834999375,0.04200,
-0.05834000000,0.05400,
-0.05833000000,0.04800,
-0.05832000000,0.04400,
-0.05831000000,0.03200,
-0.05830000000,0.05200,
-0.05829000000,0.05200,
-0.05828000000,0.03200,
-0.05827000000,0.05200,
-0.05826000000,0.04000,
-0.05825000000,0.02400,
-0.05824000000,0.04600,
-0.05823000000,0.05200,
-0.05822000000,0.03600,
-0.05820999375,0.02200,
-0.05820000000,0.04000,
-0.05819000000,0.06200,
-0.05818000000,0.01800,
-0.05817000000,0.03000,
-0.05816000000,0.05000,
-0.05815000000,0.03200,
-0.05814000000,0.02800,
-0.05813000000,0.06400,
-0.05812000000,0.02800,
-0.05811000000,0.02000,
-0.05810000000,0.03800,
-0.05809000000,0.05000,
-0.05808000000,0.01000,
-0.05807000000,0.01800,
-0.05806000000,0.05600,
-0.05805000000,0.04600,
-0.05803999375,0.01200,
-0.05803000000,0.03200,
-0.05802000000,0.04800,
-0.05801000000,0.01600,
-0.05800000000,0.04600,
-0.05799000000,0.05400,
-0.05798000000,0.01400,
-0.05797000000,0.01800,
-0.05796000000,0.05000,
-0.05795000000,0.03800,
-0.05794000000,0.00800,
-0.05793000000,0.03400,
-0.05792000000,0.05400,
-0.05791000000,0.02000,
-0.05790000000,0.01800,
-0.05789000000,0.04600,
-0.05788000000,0.01000,
-0.05787000000,0.01400,
-0.05786000000,0.04400,
-0.05785000000,0.03600,
-0.05784000000,0.00800,
-0.05783000000,0.03200,
-0.05782000000,0.05600,
-0.05781000000,0.00600,
-0.05780000000,0.00600,
-0.05779000000,0.04000,
-0.05778000000,0.03600,
-0.05777000000,0.00800,
-0.05776000000,0.02800,
-0.05775000000,0.04600,
-0.05774000000,-0.01600,
-0.05772999375,0.01800,
-0.05772000000,0.04600,
-0.05771000000,0.01200,
-0.05770000000,0.00800,
-0.05769000000,0.04000,
-0.05768000000,0.03800,
-0.05767000000,-0.01400,
-0.05766000000,0.01600,
-0.05765000000,0.03800,
-0.05764000000,0.00200,
-0.05763000000,0.01400,
-0.05762000000,0.04400,
-0.05761000000,0.01200,
-0.05760000000,-0.00400,
-0.05759000000,0.02800,
-0.05758000000,0.02800,
-0.05757000000,-0.01000,
-0.05755999375,0.02000,
-0.05755000000,0.05200,
-0.05754000000,-0.01000,
-0.05753000000,0.00200,
-0.05752000000,0.02400,
-0.05751000000,0.02400,
-0.05750000000,-0.00800,
-0.05749000000,0.02800,
-0.05748000000,0.04400,
-0.05747000000,-0.01200,
-0.05746000000,0.00800,
-0.05745000000,0.03400,
-0.05744000000,0.00,
-0.05743000000,0.00,
-0.05741999375,0.03800,
-0.05741000000,0.02200,
-0.05740000000,-0.01000,
-0.05739000000,0.01800,
-0.05738000000,0.03600,
-0.05737000000,-0.01200,
-0.05736000000,0.01000,
-0.05735000000,0.03800,
-0.05734000000,0.00600,
-0.05733000000,-0.00400,
-0.05732000000,0.03200,
-0.05731000000,0.01800,
-0.05730000000,-0.01200,
-0.05729000000,0.01800,
-0.05728000000,0.03200,
-0.05727000000,-0.00600,
-0.05726000000,0.01000,
-0.05724999375,0.03600,
-0.05724000000,0.00600,
-0.05723000000,-0.01200,
-0.05722000000,0.02000,
-0.05721000000,0.02200,
-0.05720000000,-0.00600,
-0.05719000000,0.01600,
-0.05718000000,0.03200,
-0.05717000000,-0.02200,
-0.05716000000,0.00400,
-0.05715000000,0.03000,
-0.05714000000,0.00600,
-0.05713000000,-0.00200,
-0.05712000000,0.02000,
-0.05711000000,0.02800,
-0.05710000000,-0.01400,
-0.05709000000,0.00,
-0.05708000000,0.02800,
-0.05707000000,0.00200,
-0.05706000000,-0.00200,
-0.05705000000,0.03400,
-0.05704000000,0.00,
-0.05703000000,-0.01400,
-0.05702000000,0.01400,
-0.05701000000,0.02400,
-0.05700000000,-0.01600,
-0.05699000000,0.00,
-0.05698000000,0.02400,
-0.05697000000,0.01800,
-0.05696000000,-0.01200,
-0.05695000000,0.01400,
-0.05693999375,0.01600,
-0.05693000000,-0.01400,
-0.05692000000,0.02800,
-0.05691000000,0.02400,
-0.05690000000,-0.01400,
-0.05689000000,0.00600,
-0.05688000000,0.01600,
-0.05687000000,0.00,
-0.05686000000,-0.00600,
-0.05685000000,0.01400,
-0.05684000000,0.03200,
-0.05683000000,-0.01200,
-0.05682000000,0.00400,
-0.05681000000,0.02600,
-0.05680000000,-0.00800,
-0.05679000000,0.01400,
-0.05678000000,0.02600,
-0.05677000000,-0.00200,
-0.05676000000,-0.00200,
-0.05675000000,0.01600,
-0.05674000000,0.02400,
-0.05673000000,0.00,
-0.05672000000,-0.00200,
-0.05671000000,0.01800,
-0.05670000000,0.00600,
-0.05669000000,-0.00400,
-0.05668000000,0.02200,
-0.05667000000,0.00600,
-0.05666000000,-0.00800,
-0.05665000000,0.01600,
-0.05664000000,0.00800,
-0.05662999375,-0.00600,
-0.05662000000,0.01200,
-0.05661000000,0.01400,
-0.05660000000,0.00600,
-0.05659000000,-0.01200,
-0.05658000000,0.00600,
-0.05657000000,0.01200,
-0.05656000000,0.00,
-0.05655000000,0.00600,
-0.05654000000,0.01200,
-0.05653000000,-0.01200,
-0.05652000000,0.00200,
-0.05651000000,0.01600,
-0.05650000000,0.00400,
-0.05649000000,-0.00600,
-0.05648000000,0.00200,
-0.05647000000,0.00600,
-0.05645999375,0.00600,
-0.05645000000,-0.00600,
-0.05644000000,0.01600,
-0.05643000000,0.00200,
-0.05642000000,-0.00600,
-0.05641000000,0.01600,
-0.05640000000,-0.00200,
-0.05639000000,-0.00200,
-0.05638000000,0.00600,
-0.05637000000,0.01200,
-0.05636000000,-0.00400,
-0.05635000000,0.00400,
-0.05634000000,0.01400,
-0.05633000000,0.02200,
-0.05632000000,-0.01000,
-0.05631000000,0.01000,
-0.05630000000,0.01200,
-0.05629000000,-0.00800,
-0.05628000000,0.01800,
-0.05627000000,0.01600,
-0.05626000000,0.00400,
-0.05625000000,0.00600,
-0.05624000000,0.01000,
-0.05623000000,0.01200,
-0.05622000000,0.01000,
-0.05621000000,0.00800,
-0.05620000000,0.01600,
-0.05619000000,0.00200,
-0.05618000000,0.00,
-0.05617000000,0.02800,
-0.05616000000,-0.00400,
-0.05614999375,0.01200,
-0.05614000000,0.01400,
-0.05613000000,0.00200,
-0.05612000000,0.00400,
-0.05611000000,0.01400,
-0.05610000000,0.01000,
-0.05609000000,0.00200,
-0.05608000000,0.00600,
-0.05607000000,0.01200,
-0.05606000000,0.00400,
-0.05605000000,0.00600,
-0.05604000000,0.01800,
-0.05603000000,0.01000,
-0.05602000000,0.00400,
-0.05601000000,0.00600,
-0.05600000000,0.01000,
-0.05599000000,0.01000,
-0.05598000000,0.01400,
-0.05597000000,0.00600,
-0.05596000000,0.00800,
-0.05595000000,0.00400,
-0.05594000000,0.01000,
-0.05593000000,0.01200,
-0.05592000000,0.00800,
-0.05591000000,0.01400,
-0.05590000000,0.01000,
-0.05589000000,0.00800,
-0.05588000000,0.00400,
-0.05587000000,0.00600,
-0.05586000000,0.01200,
-0.05585000000,0.00400,
-0.05583999375,0.01800,
-0.05583000000,0.00200,
-0.05582000000,0.01000,
-0.05581000000,0.00600,
-0.05580000000,0.01200,
-0.05579000000,0.00800,
-0.05578000000,0.00,
-0.05577000000,0.01200,
-0.05576000000,0.02000,
-0.05575000000,0.01200,
-0.05574000000,0.00600,
-0.05573000000,0.01200,
-0.05572000000,0.00800,
-0.05571000000,0.02200,
-0.05570000000,0.01600,
-0.05569000000,0.01600,
-0.05568000000,0.01000,
-0.05567000000,0.01200,
-0.05566000000,0.02000,
-0.05565000000,0.01000,
-0.05564000000,0.01200,
-0.05563000000,0.01400,
-0.05562000000,0.02000,
-0.05561000000,0.00800,
-0.05560000000,0.01200,
-0.05559000000,0.00800,
-0.05558000000,0.01600,
-0.05557000000,0.02000,
-0.05556000000,0.02000,
-0.05555000000,0.01000,
-0.05554000000,0.01000,
-0.05552999375,0.02600,
-0.05552000000,0.00800,
-0.05551000000,0.01000,
-0.05550000000,0.01200,
-0.05549000000,0.02000,
-0.05548000000,0.01400,
-0.05547000000,0.01800,
-0.05546000000,0.01400,
-0.05545000000,0.01200,
-0.05544000000,0.01400,
-0.05543000000,0.02000,
-0.05542000000,0.01800,
-0.05541000000,0.01400,
-0.05540000000,0.02600,
-0.05539000000,0.01800,
-0.05538000000,0.01800,
-0.05537000000,0.01000,
-0.05535999375,0.02400,
-0.05535000000,0.02200,
-0.05534000000,0.02200,
-0.05533000000,0.02600,
-0.05532000000,0.01600,
-0.05531000000,0.01400,
-0.05530000000,0.02400,
-0.05529000000,0.02200,
-0.05528000000,0.01600,
-0.05527000000,0.01800,
-0.05526000000,0.02600,
-0.05525000000,0.03000,
-0.05524000000,0.01400,
-0.05523000000,0.01800,
-0.05522000000,0.02400,
-0.05521000000,0.02200,
-0.05520000000,0.03400,
-0.05519000000,0.02200,
-0.05518000000,0.02200,
-0.05517000000,0.02200,
-0.05516000000,0.02800,
-0.05515000000,0.02000,
-0.05514000000,0.02000,
-0.05513000000,0.02400,
-0.05512000000,0.03800,
-0.05511000000,0.02800,
-0.05510000000,0.02000,
-0.05509000000,0.03000,
-0.05508000000,0.01800,
-0.05507000000,0.03600,
-0.05506000000,0.03800,
-0.05504999375,0.02800,
-0.05504000000,0.02400,
-0.05503000000,0.02400,
-0.05502000000,0.03400,
-0.05501000000,0.02600,
-0.05500000000,0.02200,
-0.05499000000,0.03400,
-0.05498000000,0.03800,
-0.05497000000,0.02800,
-0.05496000000,0.03000,
-0.05495000000,0.02800,
-0.05494000000,0.03000,
-0.05493000000,0.03400,
-0.05492000000,0.04000,
-0.05491000000,0.02800,
-0.05490000000,0.03200,
-0.05489000000,0.04200,
-0.05488000000,0.03200,
-0.05487000000,0.02600,
-0.05486000000,0.02600,
-0.05485000000,0.04200,
-0.05484000000,0.03800,
-0.05483000000,0.03800,
-0.05482000000,0.03800,
-0.05481000000,0.03000,
-0.05480000000,0.03000,
-0.05479000000,0.03800,
-0.05478000000,0.03600,
-0.05477000000,0.03200,
-0.05476000000,0.03600,
-0.05475000000,0.04200,
-0.05473999375,0.04200,
-0.05473000000,0.02600,
-0.05472000000,0.04200,
-0.05471000000,0.04000,
-0.05470000000,0.03800,
-0.05469000000,0.04800,
-0.05468000000,0.03400,
-0.05467000000,0.02600,
-0.05466000000,0.03800,
-0.05465000000,0.04200,
-0.05464000000,0.03000,
-0.05463000000,0.03400,
-0.05462000000,0.04600,
-0.05461000000,0.05400,
-0.05460000000,0.03400,
-0.05459000000,0.03600,
-0.05458000000,0.04400,
-0.05457000000,0.02800,
-0.05456000000,0.05000,
-0.05455000000,0.04600,
-0.05454000000,0.03600,
-0.05453000000,0.03600,
-0.05452000000,0.04200,
-0.05451000000,0.04200,
-0.05450000000,0.03200,
-0.05449000000,0.04000,
-0.05448000000,0.05400,
-0.05447000000,0.04600,
-0.05446000000,0.03800,
-0.05445000000,0.04200,
-0.05444000000,0.03200,
-0.05443000000,0.04000,
-0.05442000000,0.05200,
-0.05441000000,0.04400,
-0.05440000000,0.03600,
-0.05439000000,0.04200,
-0.05438000000,0.05200,
-0.05437000000,0.03800,
-0.05436000000,0.03600,
-0.05435000000,0.04200,
-0.05434000000,0.05000,
-0.05433000000,0.04200,
-0.05432000000,0.04800,
-0.05431000000,0.03800,
-0.05430000000,0.04000,
-0.05429000000,0.04800,
-0.05428000000,0.04800,
-0.05427000000,0.04200,
-0.05425999375,0.04200,
-0.05425000000,0.05400,
-0.05424000000,0.04800,
-0.05423000000,0.04200,
-0.05422000000,0.04000,
-0.05421000000,0.05400,
-0.05420000000,0.05200,
-0.05419000000,0.05000,
-0.05418000000,0.05200,
-0.05417000000,0.04400,
-0.05416000000,0.04000,
-0.05415000000,0.05400,
-0.05414000000,0.05200,
-0.05413000000,0.04400,
-0.05412000000,0.05400,
-0.05411000000,0.05600,
-0.05410000000,0.06600,
-0.05409000000,0.04400,
-0.05408000000,0.05200,
-0.05407000000,0.05600,
-0.05406000000,0.04800,
-0.05405000000,0.06400,
-0.05404000000,0.05200,
-0.05403000000,0.05000,
-0.05402000000,0.05400,
-0.05401000000,0.06000,
-0.05400000000,0.05400,
-0.05399000000,0.05200,
-0.05398000000,0.06600,
-0.05397000000,0.07200,
-0.05396000000,0.06000,
-0.05394999375,0.05400,
-0.05394000000,0.06400,
-0.05393000000,0.05400,
-0.05392000000,0.07000,
-0.05391000000,0.07000,
-0.05390000000,0.06400,
-0.05389000000,0.06000,
-0.05388000000,0.07200,
-0.05387000000,0.07600,
-0.05386000000,0.06200,
-0.05385000000,0.06400,
-0.05384000000,0.07800,
-0.05383000000,0.07600,
-0.05382000000,0.06400,
-0.05381000000,0.07600,
-0.05380000000,0.06400,
-0.05379000000,0.07600,
-0.05378000000,0.08400,
-0.05377000000,0.08200,
-0.05376000000,0.07600,
-0.05375000000,0.08000,
-0.05374000000,0.09600,
-0.05373000000,0.08200,
-0.05372000000,0.07800,
-0.05371000000,0.08000,
-0.05370000000,0.09200,
-0.05369000000,0.08800,
-0.05368000000,0.08800,
-0.05367000000,0.08200,
-0.05366000000,0.08200,
-0.05365000000,0.08600,
-0.05363999375,0.09600,
-0.05363000000,0.08800,
-0.05362000000,0.08600,
-0.05361000000,0.09400,
-0.05360000000,0.09000,
-0.05359000000,0.08800,
-0.05358000000,0.08200,
-0.05357000000,0.08600,
-0.05356000000,0.08800,
-0.05355000000,0.08800,
-0.05354000000,0.09000,
-0.05353000000,0.08000,
-0.05352000000,0.08200,
-0.05351000000,0.09000,
-0.05350000000,0.09000,
-0.05349000000,0.08200,
-0.05348000000,0.08600,
-0.05347000000,0.08600,
-0.05346000000,0.09000,
-0.05345000000,0.08400,
-0.05344000000,0.08400,
-0.05343000000,0.08800,
-0.05342000000,0.08400,
-0.05341000000,0.09200,
-0.05340000000,0.09000,
-0.05339000000,0.09000,
-0.05338000000,0.09000,
-0.05337000000,0.09400,
-0.05336000000,0.09400,
-0.05335000000,0.08400,
-0.05334000000,0.09000,
-0.05333000000,0.09600,
-0.05332000000,0.09400,
-0.05331000000,0.08800,
-0.05330000000,0.09600,
-0.05329000000,0.09800,
-0.05328000000,0.09800,
-0.05327000000,0.09800,
-0.05326000000,0.10000,
-0.05325000000,0.09000,
-0.05324000000,0.09000,
-0.05323000000,0.10200,
-0.05322000000,0.08200,
-0.05321000000,0.08800,
-0.05320000000,0.08800,
-0.05319000000,0.08800,
-0.05318000000,0.08200,
-0.05317000000,0.08600,
-0.05315999375,0.08000,
-0.05315000000,0.08200,
-0.05314000000,0.07600,
-0.05313000000,0.08400,
-0.05312000000,0.08400,
-0.05311000000,0.08200,
-0.05310000000,0.09400,
-0.05309000000,0.08800,
-0.05308000000,0.08600,
-0.05307000000,0.09200,
-0.05306000000,0.10200,
-0.05305000000,0.11000,
-0.05304000000,0.11600,
-0.05303000000,0.12200,
-0.05302000000,0.13200,
-0.05301000000,0.12600,
-0.05300000000,0.14600,
-0.05299000000,0.14800,
-0.05298000000,0.14000,
-0.05297000000,0.15800,
-0.05296000000,0.16000,
-0.05295000000,0.15800,
-0.05294000000,0.15600,
-0.05293000000,0.16600,
-0.05292000000,0.15800,
-0.05291000000,0.14600,
-0.05290000000,0.15200,
-0.05289000000,0.15400,
-0.05288000000,0.14600,
-0.05287000000,0.13600,
-0.05286000000,0.14200,
-0.05284999375,0.13400,
-0.05284000000,0.12800,
-0.05283000000,0.14000,
-0.05282000000,0.13400,
-0.05281000000,0.12800,
-0.05280000000,0.13000,
-0.05279000000,0.13200,
-0.05278000000,0.12200,
-0.05277000000,0.12200,
-0.05276000000,0.13600,
-0.05275000000,0.13000,
-0.05274000000,0.11800,
-0.05273000000,0.12200,
-0.05272000000,0.13000,
-0.05271000000,0.11800,
-0.05270000000,0.13800,
-0.05269000000,0.13600,
-0.05268000000,0.12600,
-0.05267000000,0.13200,
-0.05266000000,0.14400,
-0.05265000000,0.13800,
-0.05264000000,0.13400,
-0.05263000000,0.13200,
-0.05262000000,0.14800,
-0.05261000000,0.13800,
-0.05260000000,0.14400,
-0.05259000000,0.16200,
-0.05258000000,0.14400,
-0.05257000000,0.15400,
-0.05256000000,0.16000,
-0.05255000000,0.15200,
-0.05254000000,0.15000,
-0.05253000000,0.16200,
-0.05252000000,0.17200,
-0.05251000000,0.16200,
-0.05250000000,0.14400,
-0.05249000000,0.17000,
-0.05248000000,0.17400,
-0.05247000000,0.16200,
-0.05246000000,0.17400,
-0.05245000000,0.17400,
-0.05244000000,0.16200,
-0.05243000000,0.18000,
-0.05241999688,0.18800,
-0.05241000000,0.18000,
-0.05240000000,0.17400,
-0.05238999688,0.18400,
-0.05238000000,0.19400,
-0.05236999688,0.17000,
-0.05235999688,0.18200,
-0.05235000000,0.19400,
-0.05233999688,0.18200,
-0.05233000000,0.18800,
-0.05232000000,0.20200,
-0.05230999688,0.18600,
-0.05230000000,0.18000,
-0.05229000000,0.20200,
-0.05227999688,0.19600,
-0.05227000000,0.18400,
-0.05226000000,0.18800,
-0.05224999688,0.21200,
-0.05224000000,0.19600,
-0.05223000000,0.18600,
-0.05221999688,0.20000,
-0.05221000000,0.19200,
-0.05219999688,0.18200,
-0.05218999688,0.21000,
-0.05218000000,0.21000,
-0.05216999688,0.18200,
-0.05216000000,0.19600,
-0.05215000000,0.20600,
-0.05213999688,0.19000,
-0.05213000000,0.18000,
-0.05212000000,0.21000,
-0.05210999688,0.20600,
-0.05210000000,0.18200,
-0.05209000000,0.19000,
-0.05207999688,0.20800,
-0.05207000000,0.18200,
-0.05205999688,0.19000,
-0.05204999688,0.21200,
-0.05204000000,0.18800,
-0.05202999688,0.18400,
-0.05201999688,0.20400,
-0.05201000000,0.20400,
-0.05199999688,0.18400,
-0.05199000000,0.18600,
-0.05198000000,0.20800,
-0.05196999688,0.19000,
-0.05196000000,0.18800,
-0.05195000000,0.20800,
-0.05193999688,0.18800,
-0.05193000000,0.17600,
-0.05192000000,0.20000,
-0.05190999688,0.21000,
-0.05190000000,0.18800,
-0.05188999688,0.19200,
-0.05187999688,0.21200,
-0.05187000000,0.19200,
-0.05185999688,0.17600,
-0.05185000000,0.19400,
-0.05184000000,0.19800,
-0.05182999688,0.18000,
-0.05182000000,0.19400,
-0.05181000000,0.20200,
-0.05179999688,0.17600,
-0.05179000000,0.18000,
-0.05178000000,0.20000,
-0.05176999688,0.19000,
-0.05176000000,0.17200,
-0.05174999688,0.19800,
-0.05173999688,0.19600,
-0.05173000000,0.16800,
-0.05171999688,0.17800,
-0.05170999688,0.18800,
-0.05170000000,0.17400,
-0.05168999688,0.17400,
-0.05168000000,0.20000,
-0.05167000000,0.19200,
-0.05165999688,0.16400,
-0.05165000000,0.18400,
-0.05164000000,0.32000,
-0.05162999688,0.32000,
-0.05162000000,0.32000,
-0.05161000000,0.15400,
-0.05159999688,0.22400,
-0.05159000000,0.10800,
-0.05157999688,0.14800,
-0.05156999688,0.14600,
-0.05156000000,0.12200,
-0.05154999688,0.14400,
-0.05154000000,0.15800,
-0.05153000000,0.13800,
-0.05151999688,0.13200,
-0.05151000000,0.14800,
-0.05150000000,0.13600,
-0.05148999688,0.12200,
-0.05148000000,0.14200,
-0.05147000000,0.14000,
-0.05145999688,0.12000,
-0.05145000000,0.13200,
-0.05144000000,0.14600,
-0.05142999688,0.12800,
-0.05142000000,0.12000,
-0.05140999688,0.14400,
-0.05139999688,0.13600,
-0.05139000000,0.12400,
-0.05137999688,0.13600,
-0.05137000000,0.13600,
-0.05136000000,0.11400,
-0.05134999688,0.12400,
-0.05134000000,0.14400,
-0.05133000000,0.12600,
-0.05131999688,0.12600,
-0.05131000000,0.14400,
-0.05130000000,0.14800,
-0.05128999688,0.12000,
-0.05128000000,0.13000,
-0.05126999688,0.14600,
-0.05125999688,0.13600,
-0.05125000000,0.13200,
-0.05123999688,0.13800,
-0.05123000000,0.12400,
-0.05122000000,0.12000,
-0.05120999688,0.14200,
-0.05120000000,0.14000,
-0.05119000000,0.12600,
-0.05117999688,0.13400,
-0.05117000000,0.14400,
-0.05116000000,0.13800,
-0.05114999688,0.12200,
-0.05114000000,0.13800,
-0.05113000000,0.13800,
-0.05111999688,0.12000,
-0.05111000000,0.14200,
-0.05109999688,0.14400,
-0.05108999688,0.12200,
-0.05108000000,0.13200,
-0.05106999688,0.14000,
-0.05106000000,0.12800,
-0.05105000000,0.12200,
-0.05103999688,0.10600,
-0.05103000000,0.10800,
-0.05102000000,0.07600,
-0.05100999688,0.06600,
-0.05100000000,0.07200,
-0.05099000000,0.05800,
-0.05097999688,0.06200,
-0.05097000000,0.07600,
-0.05095999688,0.06200,
-0.05094999688,0.06000,
-0.05094000000,0.06800,
-0.05092999688,0.07400,
-0.05091999688,0.07000,
-0.05091000000,0.06600,
-0.05089999688,0.08600,
-0.05089000000,0.07600,
-0.05088000000,0.07400,
-0.05086999688,0.09200,
-0.05086000000,0.09200,
-0.05085000000,0.09200,
-0.05083999688,0.10600,
-0.05083000000,0.11200,
-0.05082000000,0.10800,
-0.05080999688,0.11600,
-0.05080000000,0.13400,
-0.05078999688,0.13000,
-0.05077999688,0.12000,
-0.05077000000,0.13200,
-0.05075999688,0.14400,
-0.05075000000,0.13600,
-0.05074000000,0.14000,
-0.05072999688,0.15000,
-0.05072000000,0.13400,
-0.05071000000,0.14400,
-0.05069999688,0.15800,
-0.05069000000,0.15600,
-0.05068000000,0.15200,
-0.05066999688,0.16000,
-0.05066000000,0.16200,
-0.05065000000,0.15600,
-0.05063999688,0.15600,
-0.05063000000,0.16600,
-0.05061999688,0.16800,
-0.05060999688,0.15600,
-0.05060000000,0.17600,
-0.05058999688,0.16600,
-0.05058000000,0.16800,
-0.05057000000,0.17600,
-0.05055999688,0.17400,
-0.05055000000,0.16600,
-0.05054000000,0.16800,
-0.05052999688,0.16800,
-0.05052000000,0.17600,
-0.05051000000,0.16000,
-0.05049999688,0.16600,
-0.05049000000,0.16200,
-0.05047999688,0.14800,
-0.05046999688,0.15400,
-0.05046000000,0.15000,
-0.05044999688,0.14200,
-0.05044000000,0.13200,
-0.05043000000,0.12800,
-0.05041999688,0.12000,
-0.05041000000,0.11800,
-0.05040000000,0.11000,
-0.05038999688,0.11400,
-0.05038000000,0.10200,
-0.05037000000,0.10200,
-0.05035999688,0.11600,
-0.05035000000,0.11200,
-0.05034000000,0.12000,
-0.05032999688,0.13200,
-0.05032000000,0.14000,
-0.05030999688,0.14600,
-0.05029999688,0.15800,
-0.05029000000,0.18000,
-0.05027999688,0.18200,
-0.05027000000,0.19400,
-0.05026000000,0.20800,
-0.05024999688,0.22000,
-0.05024000000,0.22000,
-0.05023000000,0.23200,
-0.05021999688,0.23800,
-0.05021000000,0.22800,
-0.05020000000,0.21600,
-0.05018999688,0.22200,
-0.05018000000,0.21600,
-0.05016999688,0.20800,
-0.05015999688,0.20800,
-0.05015000000,0.19800,
-0.05013999688,0.19400,
-0.05013000000,0.19000,
-0.05012000000,0.19400,
-0.05010999688,0.18600,
-0.05010000000,0.17600,
-0.05009000000,0.18000,
-0.05007999688,0.17000,
-0.05007000000,0.16200,
-0.05006000000,0.15800,
-0.05004999688,0.16000,
-0.05004000000,0.14800,
-0.05003000000,0.15400,
-0.05001999688,0.14200,
-0.05001000000,0.14200,
-0.04999999688,0.14000,
-0.04998999688,0.14800,
-0.04998000000,0.15200,
-0.04996999688,0.13400,
-0.04996000000,0.15200,
-0.04995000000,0.15200,
-0.04993999688,0.15800,
-0.04993000000,0.14800,
-0.04992000000,0.15600,
-0.04990999688,0.16000,
-0.04990000000,0.16600,
-0.04989000000,0.17000,
-0.04987999688,0.18000,
-0.04987000000,0.17000,
-0.04985999688,0.17800,
-0.04984999688,0.19000,
-0.04984000000,0.18200,
-0.04982999688,0.18600,
-0.04982000000,0.18600,
-0.04981000000,0.19600,
-0.04979999688,0.18800,
-0.04979000000,0.18400,
-0.04978000000,0.19200,
-0.04976999688,0.19000,
-0.04976000000,0.20200,
-0.04975000000,0.20600,
-0.04973999688,0.19600,
-0.04973000000,0.19200,
-0.04972000000,0.20600,
-0.04970999688,0.20200,
-0.04970000000,0.19000,
-0.04968999688,0.18400,
-0.04967999688,0.20400,
-0.04967000000,0.20400,
-0.04965999688,0.19200,
-0.04965000000,0.20600,
-0.04964000000,0.19200,
-0.04962999688,0.20000,
-0.04962000000,0.20800,
-0.04961000000,0.20800,
-0.04959999688,0.20000,
-0.04959000000,0.20000,
-0.04958000000,0.21600,
-0.04956999688,0.20400,
-0.04956000000,0.19000,
-0.04955000000,0.20400,
-0.04953999688,0.21400,
-0.04953000000,0.20200,
-0.04951999688,0.21800,
-0.04950999688,0.20200,
-0.04950000000,0.19600,
-0.04948999688,0.20200,
-0.04948000000,0.21400,
-0.04947000000,0.20600,
-0.04945999688,0.19400,
-0.04945000000,0.21000,
-0.04944000000,0.22000,
-0.04942999688,0.20600,
-0.04942000000,0.19600,
-0.04941000000,0.21400,
-0.04939999688,0.20400,
-0.04939000000,0.21600,
-0.04937999688,0.21400,
-0.04936999688,0.20800,
-0.04936000000,0.19800,
-0.04934999688,0.21200,
-0.04934000000,0.21000,
-0.04933000000,0.19200,
-0.04931999688,0.20600,
-0.04931000000,0.21800,
-0.04930000000,0.22000,
-0.04928999688,0.19400,
-0.04928000000,0.20200,
-0.04927000000,0.20400,
-0.04925999688,0.20000,
-0.04925000000,0.21800,
-0.04924000000,0.21200,
-0.04922999688,0.19600,
-0.04922000000,0.19800,
-0.04920999688,0.20600,
-0.04919999688,0.19800,
-0.04919000000,0.18800,
-0.04917999688,0.18800,
-0.04917000000,0.20800,
-0.04916000000,0.19400,
-0.04914999688,0.19000,
-0.04914000000,0.19600,
-0.04913000000,0.18200,
-0.04911999688,0.19400,
-0.04911000000,0.20200,
-0.04910000000,0.18600,
-0.04908999688,0.18000,
-0.04908000000,0.19600,
-0.04906999688,0.19200,
-0.04905999688,0.17600,
-0.04905000000,0.16400,
-0.04903999688,0.18600,
-0.04903000000,0.18600,
-0.04902000000,0.17200,
-0.04900999688,0.19200,
-0.04900000000,0.16000,
-0.04899000000,0.15800,
-0.04897999688,0.16600,
-0.04897000000,0.16200,
-0.04896000000,0.15000,
-0.04894999688,0.15000,
-0.04894000000,0.15800,
-0.04893000000,0.15400,
-0.04891999688,0.14200,
-0.04891000000,0.14000,
-0.04889999688,0.14800,
-0.04888999688,0.14200,
-0.04888000000,0.15200,
-0.04886999688,0.13600,
-0.04886000000,0.12400,
-0.04885000000,0.12800,
-0.04883999688,0.13600,
-0.04883000000,0.13000,
-0.04882000000,0.11800,
-0.04880999688,0.13200,
-0.04880000000,0.14000,
-0.04879000000,0.12800,
-0.04877999688,0.12000,
-0.04877000000,0.12800,
-0.04876000000,0.11400,
-0.04874999688,0.11600,
-0.04874000000,0.12000,
-0.04872999688,0.11600,
-0.04872000000,0.10600,
-0.04871000000,0.11200,
-0.04869999688,0.11800,
-0.04869000000,0.10600,
-0.04868000000,0.11000,
-0.04866999688,0.11000,
-0.04866000000,0.11800,
-0.04865000000,0.10600,
-0.04863999688,0.10200,
-0.04863000000,0.10400,
-0.04862000000,0.09600,
-0.04860999688,0.10800,
-0.04860000000,0.10400,
-0.04858999688,0.09800,
-0.04857999688,0.10000,
-0.04857000000,0.10400,
-0.04855999688,0.09800,
-0.04855000000,0.09400,
-0.04854000000,0.08600,
-0.04852999688,0.09800,
-0.04852000000,0.09800,
-0.04851000000,0.09000,
-0.04849999688,0.09400,
-0.04849000000,0.07600,
-0.04848000000,0.08800,
-0.04846999688,0.09400,
-0.04846000000,0.08600,
-0.04845000000,0.08200,
-0.04843999688,0.09200,
-0.04843000000,0.09200,
-0.04841999688,0.08200,
-0.04840999688,0.08200,
-0.04840000000,0.08600,
-0.04838999688,0.09000,
-0.04838000000,0.08400,
-0.04837000000,0.09800,
-0.04835999688,0.09200,
-0.04835000000,0.07600,
-0.04834000000,0.08600,
-0.04832999688,0.08800,
-0.04832000000,0.09000,
-0.04831000000,0.07600,
-0.04829999688,0.09400,
-0.04829000000,0.11000,
-0.04827999688,0.18400,
-0.04826999688,0.09600,
-0.04826000000,0.09000,
-0.04824999688,0.11400,
-0.04824000000,0.16400,
-0.04823000000,0.10200,
-0.04821999688,0.10800,
-0.04821000000,0.12200,
-0.04820000000,0.18000,
-0.04818999688,0.16200,
-0.04818000000,0.10200,
-0.04817000000,0.18000,
-0.04815999688,0.17000,
-0.04815000000,0.16200,
-0.04814000000,0.14000,
-0.04812999688,0.12800,
-0.04812000000,0.13000,
-0.04810999688,0.13000,
-0.04809999688,0.15200,
-0.04809000000,0.14000,
-0.04807999688,0.13800,
-0.04807000000,0.13800,
-0.04806000000,0.14000,
-0.04804999688,0.14000,
-0.04804000000,0.13200,
-0.04803000000,0.12800,
-0.04801999688,0.13600,
-0.04801000000,0.14600,
-0.04800000000,0.13600,
-0.04798999688,0.13200,
-0.04798000000,0.12400,
-0.04796999688,0.13800,
-0.04795999688,0.14200,
-0.04795000000,0.13800,
-0.04793999688,0.13600,
-0.04793000000,0.14000,
-0.04792000000,0.14400,
-0.04790999688,0.13600,
-0.04790000000,0.12600,
-0.04789000000,0.12800,
-0.04787999688,0.14200,
-0.04787000000,0.13800,
-0.04786000000,0.14000,
-0.04784999688,0.12600,
-0.04784000000,0.12600,
-0.04783000000,0.13400,
-0.04781999688,0.13800,
-0.04781000000,0.13800,
-0.04779999688,0.12600,
-0.04778999688,0.13800,
-0.04778000000,0.13400,
-0.04776999688,0.13600,
-0.04776000000,0.12400,
-0.04775000000,0.13400,
-0.04773999688,0.13600,
-0.04773000000,0.14000,
-0.04772000000,0.13200,
-0.04770999688,0.13200,
-0.04770000000,0.12400,
-0.04769000000,0.13200,
-0.04767999688,0.12600,
-0.04767000000,0.11400,
-0.04766000000,0.12000,
-0.04764999688,0.12000,
-0.04764000000,0.13000,
-0.04762999688,0.11800,
-0.04762000000,0.11800,
-0.04761000000,0.11600,
-0.04759999688,0.12800,
-0.04759000000,0.12200,
-0.04758000000,0.12800,
-0.04756999688,0.12000,
-0.04756000000,0.11600,
-0.04755000000,0.12400,
-0.04753999688,0.12600,
-0.04753000000,0.12200,
-0.04752000000,0.12800,
-0.04750999688,0.13200,
-0.04750000000,0.12800,
-0.04748999688,0.12000,
-0.04747999688,0.13000,
-0.04747000000,0.12600,
-0.04745999688,0.13200,
-0.04745000000,0.12800,
-0.04744000000,0.13000,
-0.04742999688,0.12200,
-0.04742000000,0.12400,
-0.04741000000,0.13200,
-0.04739999688,0.12400,
-0.04739000000,0.11600,
-0.04738000000,0.12200,
-0.04736999688,0.12200,
-0.04736000000,0.11600,
-0.04735000000,0.12200,
-0.04733999688,0.11200,
-0.04733000000,0.11600,
-0.04731999688,0.11200,
-0.04730999688,0.12400,
-0.04730000000,0.12000,
-0.04728999688,0.11400,
-0.04728000000,0.13000,
-0.04727000000,0.11400,
-0.04725999688,0.11400,
-0.04725000000,0.11600,
-0.04724000000,0.12400,
-0.04722999688,0.12000,
-0.04722000000,0.11400,
-0.04721000000,0.11600,
-0.04719999688,0.12200,
-0.04719000000,0.10800,
-0.04717999688,0.12000,
-0.04716999688,0.12400,
-0.04716000000,0.10400,
-0.04714999688,0.12200,
-0.04714000000,0.11400,
-0.04713000000,0.11800,
-0.04711999688,0.11400,
-0.04711000000,0.12600,
-0.04710000000,0.11200,
-0.04708999688,0.11000,
-0.04708000000,0.11600,
-0.04707000000,0.13200,
-0.04705999688,0.10600,
-0.04705000000,0.11200,
-0.04704000000,0.12200,
-0.04702999688,0.10600,
-0.04702000000,0.11600,
-0.04700999688,0.13000,
-0.04699999688,0.12000,
-0.04699000000,0.11000,
-0.04697999688,0.11600,
-0.04697000000,0.12400,
-0.04696000000,0.11600,
-0.04694999688,0.11200,
-0.04694000000,0.12800,
-0.04693000000,0.12000,
-0.04691999688,0.10600,
-0.04691000000,0.11800,
-0.04690000000,0.12600,
-0.04688999688,0.10800,
-0.04688000000,0.13000,
-0.04687000000,0.12600,
-0.04685999688,0.10600,
-0.04685000000,0.11200,
-0.04683999688,0.13000,
-0.04683000000,0.12200,
-0.04682000000,0.10400,
-0.04680999688,0.11600,
-0.04680000000,0.12600,
-0.04679000000,0.10600,
-0.04677999688,0.11600,
-0.04677000000,0.12800,
-0.04676000000,0.09800,
-0.04674999688,0.11000,
-0.04674000000,0.12600,
-0.04673000000,0.10400,
-0.04671999688,0.11200,
-0.04671000000,0.12000,
-0.04669999688,0.12000,
-0.04668999688,0.10000,
-0.04668000000,0.10400,
-0.04666999688,0.12000,
-0.04666000000,0.11200,
-0.04665000000,0.10400,
-0.04663999688,0.12400,
-0.04663000000,0.09800,
-0.04662000000,0.09600,
-0.04660999688,0.12000,
-0.04660000000,0.11800,
-0.04659000000,0.10200,
-0.04657999688,0.10000,
-0.04657000000,0.11600,
-0.04656000000,0.11800,
-0.04654999688,0.09800,
-0.04654000000,0.11600,
-0.04652999688,0.12200,
-0.04652000000,0.09600,
-0.04651000000,0.12200,
-0.04649999688,0.13000,
-0.04649000000,0.10400,
-0.04648000000,0.10400,
-0.04646999688,0.12200,
-0.04646000000,0.10600,
-0.04645000000,0.09800,
-0.04643999688,0.11200,
-0.04643000000,0.13600,
-0.04642000000,0.11000,
-0.04640999688,0.10600,
-0.04640000000,0.11800,
-0.04638999688,0.10800,
-0.04637999688,0.11000,
-0.04637000000,0.13400,
-0.04635999688,0.12000,
-0.04635000000,0.09800,
-0.04634000000,0.11400,
-0.04632999688,0.12200,
-0.04632000000,0.10600,
-0.04631000000,0.10600,
-0.04629999688,0.13000,
-0.04629000000,0.12000,
-0.04628000000,0.10000,
-0.04626999688,0.12200,
-0.04626000000,0.12000,
-0.04625000000,0.09000,
-0.04623999688,0.11600,
-0.04623000000,0.13200,
-0.04621999688,0.10400,
-0.04620999688,0.10200,
-0.04620000000,0.13200,
-0.04618999688,0.12200,
-0.04618000000,0.09400,
-0.04617000000,0.11400,
-0.04615999688,0.12400,
-0.04615000000,0.11000,
-0.04614000000,0.11000,
-0.04612999688,0.13000,
-0.04612000000,0.10400,
-0.04611000000,0.09600,
-0.04609999688,0.12600,
-0.04609000000,0.11400,
-0.04608000000,0.10800,
-0.04606999688,0.11400,
-0.04606000000,0.13000,
-0.04604999688,0.10000,
-0.04604000000,0.09800,
-0.04603000000,0.12400,
-0.04601999688,0.11400,
-0.04601000000,0.09800,
-0.04600000000,0.12800,
-0.04598999688,0.11800,
-0.04598000000,0.09400,
-0.04597000000,0.10800,
-0.04595999688,0.12200,
-0.04595000000,0.10200,
-0.04594000000,0.10200,
-0.04592999688,0.13000,
-0.04592000000,0.11800,
-0.04590999688,0.09600,
-0.04589999688,0.11600,
-0.04589000000,0.11000,
-0.04587999688,0.09800,
-0.04587000000,0.10600,
-0.04586000000,0.12800,
-0.04584999688,0.11200,
-0.04584000000,0.10200,
-0.04583000000,0.11400,
-0.04581999688,0.11000,
-0.04581000000,0.10000,
-0.04580000000,0.11200,
-0.04578999688,0.13200,
-0.04578000000,0.10400,
-0.04577000000,0.10400,
-0.04575999688,0.11600,
-0.04575000000,0.10600,
-0.04573999688,0.09400,
-0.04573000000,0.11600,
-0.04572000000,0.12800,
-0.04570999688,0.10200,
-0.04570000000,0.10800,
-0.04569000000,0.12000,
-0.04567999688,0.09600,
-0.04567000000,0.10000,
-0.04566000000,0.11800,
-0.04564999688,0.11600,
-0.04564000000,0.10200,
-0.04563000000,0.11200,
-0.04561999688,0.12000,
-0.04561000000,0.10600,
-0.04559999688,0.09400,
-0.04558999688,0.11200,
-0.04558000000,0.11200,
-0.04556999688,0.10200,
-0.04556000000,0.11400,
-0.04555000000,0.10800,
-0.04553999688,0.09000,
-0.04553000000,0.10600,
-0.04552000000,0.11800,
-0.04550999688,0.10600,
-0.04550000000,0.10200,
-0.04549000000,0.11200,
-0.04547999688,0.11400,
-0.04547000000,0.09000,
-0.04546000000,0.10200,
-0.04544999688,0.11600,
-0.04544000000,0.10000,
-0.04542999688,0.09800,
-0.04542000000,0.11800,
-0.04541000000,0.09800,
-0.04539999688,0.09400,
-0.04539000000,0.11200,
-0.04538000000,0.10600,
-0.04536999688,0.09200,
-0.04536000000,0.09400,
-0.04535000000,0.11600,
-0.04533999688,0.10600,
-0.04533000000,0.09600,
-0.04532000000,0.11000,
-0.04530999688,0.10000,
-0.04530000000,0.09600,
-0.04528999688,0.12200,
-0.04527999688,0.11400,
-0.04527000000,0.09200,
-0.04525999688,0.10400,
-0.04525000000,0.11200,
-0.04524000000,0.09800,
-0.04522999688,0.09800,
-0.04522000000,0.11200,
-0.04521000000,0.11800,
-0.04519999688,0.09800,
-0.04519000000,0.10200,
-0.04518000000,0.11000,
-0.04516999688,0.09600,
-0.04516000000,0.11400,
-0.04515000000,0.11600,
-0.04513999688,0.10200,
-0.04513000000,0.09800,
-0.04511999688,0.11000,
-0.04510999688,0.11400,
-0.04510000000,0.10400,
-0.04508999688,0.10200,
-0.04508000000,0.11400,
-0.04507000000,0.10400,
-0.04505999688,0.10000,
-0.04505000000,0.11400,
-0.04504000000,0.10000,
-0.04502999688,0.10000,
-0.04502000000,0.10800,
-0.04501000000,0.10600,
-0.04499999688,0.10000,
-0.04499000000,0.10800,
-0.04498000000,0.10600,
-0.04496999688,0.10600,
-0.04496000000,0.08800,
-0.04494999688,0.10400,
-0.04494000000,0.11000,
-0.04493000000,0.09800,
-0.04491999688,0.10800,
-0.04491000000,0.09600,
-0.04490000000,0.09400,
-0.04488999688,0.10000,
-0.04488000000,0.10800,
-0.04487000000,0.11000,
-0.04485999688,0.09600,
-0.04485000000,0.09800,
-0.04484000000,0.10800,
-0.04482999688,0.10800,
-0.04482000000,0.10000,
-0.04480999688,0.11200,
-0.04479999688,0.10400,
-0.04479000000,0.09600,
-0.04477999688,0.10600,
-0.04477000000,0.10600,
-0.04476000000,0.10000,
-0.04474999688,0.10400,
-0.04474000000,0.10200,
-0.04473000000,0.09400,
-0.04471999688,0.09600,
-0.04471000000,0.10000,
-0.04470000000,0.10400,
-0.04468999688,0.09000,
-0.04468000000,0.09400,
-0.04467000000,0.09600,
-0.04465999688,0.08400,
-0.04465000000,0.09800,
-0.04463999688,0.09600,
-0.04463000000,0.09000,
-0.04462000000,0.08800,
-0.04460999688,0.09000,
-0.04460000000,0.09800,
-0.04459000000,0.09200,
-0.04457999688,0.09600,
-0.04457000000,0.10400,
-0.04456000000,0.09200,
-0.04454999688,0.09000,
-0.04454000000,0.10800,
-0.04453000000,0.09600,
-0.04451999688,0.10000,
-0.04451000000,0.10000,
-0.04449999688,0.10200,
-0.04448999688,0.09200,
-0.04448000000,0.10200,
-0.04446999688,0.10200,
-0.04446000000,0.09800,
-0.04445000000,0.09400,
-0.04443999688,0.10800,
-0.04443000000,0.10000,
-0.04442000000,0.09800,
-0.04440999688,0.10800,
-0.04440000000,0.10400,
-0.04439000000,0.09200,
-0.04437999688,0.09600,
-0.04437000000,0.10000,
-0.04436000000,0.09800,
-0.04434999688,0.09600,
-0.04434000000,0.09800,
-0.04432999688,0.09400,
-0.04432000000,0.08800,
-0.04431000000,0.09600,
-0.04429999688,0.10200,
-0.04429000000,0.08800,
-0.04428000000,0.09200,
-0.04426999688,0.10000,
-0.04426000000,0.09000,
-0.04425000000,0.08800,
-0.04423999688,0.09600,
-0.04423000000,0.10000,
-0.04422000000,0.08800,
-0.04420999688,0.10200,
-0.04420000000,0.09200,
-0.04419000000,0.08800,
-0.04417999688,0.08800,
-0.04417000000,0.09800,
-0.04415999688,0.09000,
-0.04415000000,0.08200,
-0.04414000000,0.09600,
-0.04412999688,0.09600,
-0.04412000000,0.09000,
-0.04411000000,0.08400,
-0.04409999688,0.09000,
-0.04409000000,0.08200,
-0.04408000000,0.09400,
-0.04406999688,0.09600,
-0.04406000000,0.08400,
-0.04405000000,0.08000,
-0.04403999688,0.08400,
-0.04403000000,0.09600,
-0.04401999688,0.08200,
-0.04401000000,0.08200,
-0.04400000000,0.09000,
-0.04398999688,0.09000,
-0.04398000000,0.08400,
-0.04397000000,0.08600,
-0.04395999688,0.07800,
-0.04395000000,0.08600,
-0.04394000000,0.09000,
-0.04392999688,0.09400,
-0.04392000000,0.08200,
-0.04391000000,0.09000,
-0.04389999688,0.10200,
-0.04389000000,0.08400,
-0.04388000000,0.08200,
-0.04386999688,0.08000,
-0.04386000000,0.09600,
-0.04384999688,0.08800,
-0.04384000000,0.08800,
-0.04383000000,0.09000,
-0.04381999688,0.07600,
-0.04381000000,0.08400,
-0.04380000000,0.09600,
-0.04378999688,0.08800,
-0.04378000000,0.08000,
-0.04377000000,0.09200,
-0.04375999688,0.09200,
-0.04375000000,0.09000,
-0.04374000000,0.07600,
-0.04372999688,0.08800,
-0.04372000000,0.09400,
-0.04370999688,0.08800,
-0.04369999688,0.10000,
-0.04369000000,0.08200,
-0.04367999688,0.07600,
-0.04367000000,0.09400,
-0.04366000000,0.09000,
-0.04364999688,0.07800,
-0.04364000000,0.08000,
-0.04363000000,0.10200,
-0.04361999688,0.10400,
-0.04361000000,0.08200,
-0.04360000000,0.08400,
-0.04358999688,0.09200,
-0.04358000000,0.07800,
-0.04357000000,0.00200,
-0.04355999688,0.32000,
-0.04355000000,0.31800,
-0.04353999688,0.32000,
-0.04353000000,0.28200,
-0.04352000000,0.17200,
-0.04350999688,0.20800,
-0.04350000000,0.18200,
-0.04349000000,0.20800,
-0.04347999688,0.21000,
-0.04347000000,0.17000,
-0.04346000000,0.19200,
-0.04344999688,0.17000,
-0.04344000000,0.18800,
-0.04343000000,0.20200,
-0.04341999688,0.18600,
-0.04341000000,0.17400,
-0.04339999688,0.18400,
-0.04338999688,0.19600,
-0.04338000000,0.17000,
-0.04336999688,0.17000,
-0.04336000000,0.17600,
-0.04335000000,0.19200,
-0.04333999688,0.17000,
-0.04333000000,0.17000,
-0.04332000000,0.17400,
-0.04330999688,0.16000,
-0.04330000000,0.18200,
-0.04329000000,0.18200,
-0.04327999688,0.16000,
-0.04327000000,0.16800,
-0.04326000000,0.18000,
-0.04324999688,0.16600,
-0.04324000000,0.15400,
-0.04322999688,0.15000,
-0.04322000000,0.17400,
-0.04321000000,0.16800,
-0.04319999688,0.16600,
-0.04319000000,0.18000,
-0.04318000000,0.14200,
-0.04316999688,0.15400,
-0.04316000000,0.16800,
-0.04315000000,0.15800,
-0.04313999688,0.15000,
-0.04313000000,0.16000,
-0.04312000000,0.16200,
-0.04310999688,0.16800,
-0.04310000000,0.13600,
-0.04309000000,0.15000,
-0.04307999688,0.16200,
-0.04307000000,0.14800,
-0.04305999688,0.17000,
-0.04305000000,0.13200,
-0.04304000000,0.13400,
-0.04302999688,0.15000,
-0.04302000000,0.14800,
-0.04301000000,0.14000,
-0.04299999688,0.13400,
-0.04299000000,0.14600,
-0.04298000000,0.16400,
-0.04296999688,0.13800,
-0.04296000000,0.12800,
-0.04295000000,0.14200,
-0.04293999688,0.12400,
-0.04293000000,0.14600,
-0.04291999688,0.14000,
-0.04291000000,0.12800,
-0.04290000000,0.12800,
-0.04288999688,0.13600,
-0.04288000000,0.13400,
-0.04287000000,0.11800,
-0.04285999688,0.12800,
-0.04285000000,0.14000,
-0.04284000000,0.14000,
-0.04282999688,0.11400,
-0.04282000000,0.12400,
-0.04281000000,0.11000,
-0.04279999688,0.12400,
-0.04279000000,0.13800,
-0.04278000000,0.12800,
-0.04276999688,0.11200,
-0.04276000000,0.12000,
-0.04274999688,0.13400,
-0.04274000000,0.11000,
-0.04273000000,0.10000,
-0.04271999688,0.11000,
-0.04271000000,0.12200,
-0.04270000000,0.11800,
-0.04268999688,0.11000,
-0.04268000000,0.13200,
-0.04267000000,0.09800,
-0.04265999688,0.11600,
-0.04265000000,0.12000,
-0.04264000000,0.10600,
-0.04262999688,0.10600,
-0.04262000000,0.11600,
-0.04260999688,0.12000,
-0.04259999688,0.10200,
-0.04259000000,0.09000,
-0.04257999688,0.11000,
-0.04257000000,0.11600,
-0.04256000000,0.10600,
-0.04254999688,0.12400,
-0.04254000000,0.08600,
-0.04253000000,0.09200,
-0.04251999688,0.10600,
-0.04251000000,0.10400,
-0.04250000000,0.09400,
-0.04248999688,0.09400,
-0.04248000000,0.10800,
-0.04247000000,0.11800,
-0.04245999688,0.08200,
-0.04245000000,0.08800,
-0.04243999688,0.10400,
-0.04243000000,0.09000,
-0.04242000000,0.10800,
-0.04240999688,0.08600,
-0.04240000000,0.08600,
-0.04239000000,0.08800,
-0.04237999688,0.09800,
-0.04237000000,0.08800,
-0.04236000000,0.07400,
-0.04234999688,0.09400,
-0.04234000000,0.09800,
-0.04233000000,0.09800,
-0.04231999688,0.07000,
-0.04231000000,0.10400,
-0.04230000000,0.08600,
-0.04228999688,0.09000,
-0.04228000000,0.09600,
-0.04226999688,0.08800,
-0.04226000000,0.08600,
-0.04225000000,0.08600,
-0.04223999688,0.09000,
-0.04223000000,0.08200,
-0.04222000000,0.08200,
-0.04220999688,0.08600,
-0.04220000000,0.08800,
-0.04219000000,0.07600,
-0.04217999688,0.07800,
-0.04217000000,0.07200,
-0.04216000000,0.08000,
-0.04214999688,0.08000,
-0.04214000000,0.08000,
-0.04212999688,0.07400,
-0.04212000000,0.07800,
-0.04211000000,0.08800,
-0.04209999688,0.07800,
-0.04209000000,0.07800,
-0.04208000000,0.08000,
-0.04206999688,0.09200,
-0.04206000000,0.08600,
-0.04205000000,0.08800,
-0.04203999688,0.08000,
-0.04203000000,0.08000,
-0.04202000000,0.07400,
-0.04200999688,0.07600,
-0.04200000000,0.06800,
-0.04199000000,0.05600,
-0.04197999688,0.06200,
-0.04197000000,0.06800,
-0.04195999688,0.06200,
-0.04195000000,0.05400,
-0.04194000000,0.05200,
-0.04192999688,0.07000,
-0.04192000000,0.06000,
-0.04191000000,0.06600,
-0.04189999688,0.06600,
-0.04189000000,0.05200,
-0.04188000000,0.05000,
-0.04186999688,0.06000,
-0.04186000000,0.06200,
-0.04185000000,0.03800,
-0.04183999688,0.05200,
-0.04183000000,0.07000,
-0.04181999688,0.06200,
-0.04181000000,0.04200,
-0.04180000000,0.05400,
-0.04178999688,0.05400,
-0.04178000000,0.05400,
-0.04177000000,0.06800,
-0.04175999688,0.05400,
-0.04175000000,0.04000,
-0.04174000000,0.05200,
-0.04172999688,0.05800,
-0.04172000000,0.03600,
-0.04171000000,0.04600,
-0.04169999688,0.05200,
-0.04169000000,0.06000,
-0.04168000000,0.03800,
-0.04166999688,0.04800,
-0.04166000000,0.05200,
-0.04164999688,0.04800,
-0.04164000000,0.05000,
-0.04163000000,0.05800,
-0.04161999688,0.03800,
-0.04161000000,0.03800,
-0.04160000000,0.06000,
-0.04158999688,0.03600,
-0.04158000000,0.04400,
-0.04157000000,0.04200,
-0.04155999688,0.04600,
-0.04155000000,0.04200,
-0.04154000000,0.03800,
-0.04152999688,0.04200,
-0.04152000000,0.03800,
-0.04150999688,0.03000,
-0.04149999688,0.03800,
-0.04149000000,0.04600,
-0.04147999688,0.03600,
-0.04147000000,0.03800,
-0.04146000000,0.05200,
-0.04144999688,0.02600,
-0.04144000000,0.02400,
-0.04143000000,0.04000,
-0.04141999688,0.04000,
-0.04141000000,0.03000,
-0.04140000000,0.02800,
-0.04138999688,0.03600,
-0.04138000000,0.03000,
-0.04137000000,0.02200,
-0.04135999688,0.04400,
-0.04135000000,0.03600,
-0.04133999688,0.01600,
-0.04133000000,0.03600,
-0.04132000000,0.03000,
-0.04130999688,0.02200,
-0.04130000000,0.03000,
-0.04129000000,0.03600,
-0.04127999688,0.01600,
-0.04127000000,0.02200,
-0.04126000000,0.03000,
-0.04124999688,0.04600,
-0.04124000000,0.01600,
-0.04123000000,0.02400,
-0.04121999688,0.03600,
-0.04121000000,0.00600,
-0.04120000000,0.02800,
-0.04118999688,0.04600,
-0.04118000000,0.02400,
-0.04116999688,0.02000,
-0.04116000000,0.03200,
-0.04115000000,0.04200,
-0.04113999688,0.01600,
-0.04113000000,0.03000,
-0.04112000000,0.04200,
-0.04110999688,0.02400,
-0.04110000000,0.01400,
-0.04109000000,0.03800,
-0.04107999688,0.02600,
-0.04107000000,0.03000,
-0.04106000000,0.03600,
-0.04104999688,0.03200,
-0.04104000000,0.01000,
-0.04102999688,0.02600,
-0.04102000000,0.04400,
-0.04101000000,0.03200,
-0.04099999688,0.00600,
-0.04099000000,0.02200,
-0.04098000000,0.03600,
-0.04096999688,0.00800,
-0.04096000000,0.02800,
-0.04095000000,0.03400,
-0.04093999688,0.00200,
-0.04093000000,0.01600,
-0.04092000000,0.03000,
-0.04090999688,0.01800,
-0.04090000000,0.01200,
-0.04089000000,0.02600,
-0.04087999688,0.03200,
-0.04087000000,-0.00200,
-0.04085999688,0.00600,
-0.04085000000,0.03200,
-0.04084000000,0.02200,
-0.04082999688,0.00800,
-0.04082000000,0.02400,
-0.04081000000,-0.00200,
-0.04079999688,0.00,
-0.04079000000,0.03000,
-0.04078000000,0.02400,
-0.04076999688,-0.00200,
-0.04076000000,0.00800,
-0.04075000000,0.02600,
-0.04073999688,0.02200,
-0.04073000000,-0.00400,
-0.04071999688,0.02000,
-0.04071000000,0.02200,
-0.04070000000,-0.00400,
-0.04068999688,0.02600,
-0.04068000000,0.03000,
-0.04067000000,-0.01200,
-0.04065999688,0.01400,
-0.04065000000,0.02600,
-0.04064000000,-0.00200,
-0.04062999688,-0.00400,
-0.04062000000,0.02400,
-0.04061000000,0.03800,
-0.04059999688,-0.01200,
-0.04059000000,0.01200,
-0.04058000000,0.02800,
-0.04056999688,-0.01000,
-0.04056000000,0.02200,
-0.04054999688,0.04400,
-0.04054000000,-0.00800,
-0.04053000000,0.00600,
-0.04051999688,0.02200,
-0.04051000000,0.02600,
-0.04050000000,-0.01000,
-0.04048999688,0.01400,
-0.04048000000,0.03600,
-0.04047000000,-0.00400,
-0.04045999688,0.00200,
-0.04045000000,0.02600,
-0.04044000000,0.00600,
-0.04042999688,0.00,
-0.04042000000,0.02600,
-0.04041000000,0.02400,
-0.04039999688,-0.00800,
-0.04039000000,0.01600,
-0.04037999688,0.03000,
-0.04037000000,0.00400,
-0.04036000000,-0.00800,
-0.04034999688,0.02200,
-0.04034000000,0.01600,
-0.04033000000,-0.00200,
-0.04031999688,0.01800,
-0.04031000000,0.02400,
-0.04030000000,-0.01800,
-0.04028999688,0.00600,
-0.04028000000,0.02800,
-0.04027000000,0.00400,
-0.04025999688,0.00,
-0.04025000000,0.02600,
-0.04023999688,0.02200,
-0.04023000000,-0.01800,
-0.04022000000,0.00600,
-0.04020999688,0.02600,
-0.04020000000,-0.00200,
-0.04019000000,0.00400,
-0.04017999688,0.03400,
-0.04017000000,-0.00200,
-0.04016000000,-0.00800,
-0.04014999688,0.01800,
-0.04014000000,0.01400,
-0.04013000000,-0.00800,
-0.04011999688,0.01200,
-0.04011000000,0.02800,
-0.04010000000,-0.00200,
-0.04008999688,-0.00400,
-0.04008000000,0.02000,
-0.04006999688,0.00600,
-0.04006000000,-0.00800,
-0.04005000000,0.02000,
-0.04003999688,0.03200,
-0.04003000000,-0.01600,
-0.04002000000,0.00400,
-0.04000999688,0.02200,
-0.04000000000,-0.00200,
-0.03999000000,-0.00200,
-0.03997999688,0.03200,
-0.03997000000,0.02200,
-0.03996000000,-0.01000,
-0.03994999688,0.01000,
-0.03994000000,0.02200,
-0.03992999688,-0.01000,
-0.03992000000,0.00,
-0.03991000000,0.03600,
-0.03989999688,0.00,
-0.03989000000,-0.00600,
-0.03988000000,0.01600,
-0.03986999688,0.02000,
-0.03986000000,-0.01600,
-0.03985000000,0.01000,
-0.03983999688,0.03000,
-0.03983000000,-0.00600,
-0.03982000000,0.00,
-0.03980999688,0.02600,
-0.03980000000,0.01400,
-0.03979000000,-0.01200,
-0.03977999688,0.01200,
-0.03977000000,0.02400,
-0.03975999688,-0.00200,
-0.03975000000,0.00200,
-0.03974000000,0.02200,
-0.03972999688,-0.01000,
-0.03972000000,-0.00600,
-0.03971000000,0.02000,
-0.03969999688,0.01400,
-0.03969000000,-0.00200,
-0.03968000000,0.01200,
-0.03966999688,0.02800,
-0.03966000000,-0.00200,
-0.03965000000,-0.00800,
-0.03963999688,0.01800,
-0.03963000000,0.01400,
-0.03961999688,-0.00600,
-0.03961000000,0.01200,
-0.03960000000,0.01600,
-0.03958999688,-0.01200,
-0.03958000000,0.00600,
-0.03957000000,0.02200,
-0.03955999688,-0.00200,
-0.03955000000,-0.00200,
-0.03954000000,0.01200,
-0.03952999688,0.03200,
-0.03952000000,-0.01600,
-0.03951000000,0.00400,
-0.03949999688,0.02200,
-0.03949000000,-0.00800,
-0.03948000000,0.00800,
-0.03946999688,0.03600,
-0.03946000000,-0.00200,
-0.03944999688,-0.00200,
-0.03944000000,0.01600,
-0.03943000000,0.01400,
-0.03941999688,-0.00600,
-0.03941000000,0.00400,
-0.03940000000,0.03600,
-0.03938999688,0.00200,
-0.03938000000,0.00,
-0.03937000000,0.01600,
-0.03935999688,0.01400,
-0.03935000000,0.00400,
-0.03934000000,0.03000,
-0.03932999688,0.01600,
-0.03932000000,0.00200,
-0.03931000000,0.01400,
-0.03929999688,0.02000,
-0.03929000000,0.01200,
-0.03927999688,0.00400,
-0.03927000000,0.02600,
-0.03926000000,0.01600,
-0.03924999688,0.00200,
-0.03924000000,0.01800,
-0.03923000000,0.02000,
-0.03921999688,0.00200,
-0.03921000000,0.01600,
-0.03920000000,0.01800,
-0.03918999688,0.00600,
-0.03918000000,0.00400,
-0.03917000000,0.02600,
-0.03915999688,0.02000,
-0.03915000000,-0.00200,
-0.03913999688,0.00600,
-0.03913000000,0.02600,
-0.03912000000,0.00800,
-0.03910999688,0.00800,
-0.03910000000,0.03000,
-0.03909000000,-0.00600,
-0.03907999688,0.00800,
-0.03907000000,0.02000,
-0.03906000000,0.01400,
-0.03904999688,0.01000,
-0.03904000000,0.01600,
-0.03903000000,0.01400,
-0.03901999688,0.01000,
-0.03901000000,0.00800,
-0.03900000000,0.02200,
-0.03898999688,0.01600,
-0.03898000000,0.00400,
-0.03896999688,0.02200,
-0.03896000000,0.00800,
-0.03895000000,0.01200,
-0.03893999688,0.01600,
-0.03893000000,0.01600,
-0.03892000000,0.00800,
-0.03890999688,0.01200,
-0.03890000000,0.01000,
-0.03889000000,0.02400,
-0.03887999688,0.00800,
-0.03887000000,0.01800,
-0.03886000000,0.01800,
-0.03884999688,0.00600,
-0.03884000000,0.01800,
-0.03882999688,0.02200,
-0.03882000000,0.01400,
-0.03881000000,0.01600,
-0.03879999688,0.01800,
-0.03879000000,0.01400,
-0.03878000000,0.02000,
-0.03876999688,0.01600,
-0.03876000000,0.02800,
-0.03875000000,0.01600,
-0.03873999688,0.01400,
-0.03873000000,0.02600,
-0.03872000000,0.02000,
-0.03870999688,0.01800,
-0.03870000000,0.02200,
-0.03869000000,0.02200,
-0.03867999688,0.01800,
-0.03867000000,0.01600,
-0.03865999688,0.02600,
-0.03865000000,0.01800,
-0.03864000000,0.01800,
-0.03862999688,0.02400,
-0.03862000000,0.02400,
-0.03861000000,0.02000,
-0.03859999688,0.02400,
-0.03859000000,0.03200,
-0.03858000000,0.02200,
-0.03856999688,0.01800,
-0.03856000000,0.02600,
-0.03855000000,0.02400,
-0.03853999688,0.01800,
-0.03853000000,0.02600,
-0.03852000000,0.02200,
-0.03851000000,0.01800,
-0.03850000000,0.02400,
-0.03848999688,0.03000,
-0.03848000000,0.02200,
-0.03847000000,0.02400,
-0.03845999688,0.03600,
-0.03845000000,0.02400,
-0.03844000000,0.02400,
-0.03842999688,0.02600,
-0.03842000000,0.03000,
-0.03841000000,0.02600,
-0.03839999688,0.03200,
-0.03839000000,0.02800,
-0.03838000000,0.02600,
-0.03836999688,0.02600,
-0.03836000000,0.03200,
-0.03834999688,0.03200,
-0.03834000000,0.01800,
-0.03833000000,0.03600,
-0.03831999688,0.03400,
-0.03831000000,0.03000,
-0.03830000000,0.02800,
-0.03828999688,0.03400,
-0.03828000000,0.02800,
-0.03827000000,0.04000,
-0.03825999688,0.03600,
-0.03825000000,0.03600,
-0.03824000000,0.02800,
-0.03822999688,0.04000,
-0.03822000000,0.03800,
-0.03821000000,0.02600,
-0.03820000000,0.03800,
-0.03819000000,0.03400,
-0.03817999688,0.03800,
-0.03817000000,0.03200,
-0.03816000000,0.03200,
-0.03814999688,0.03000,
-0.03814000000,0.03200,
-0.03813000000,0.04400,
-0.03811999688,0.04000,
-0.03811000000,0.03400,
-0.03810000000,0.03400,
-0.03808999688,0.04400,
-0.03808000000,0.03800,
-0.03807000000,0.03200,
-0.03805999688,0.03000,
-0.03805000000,0.03800,
-0.03803999688,0.03800,
-0.03803000000,0.03600,
-0.03802000000,0.03800,
-0.03800999688,0.03200,
-0.03800000000,0.03800,
-0.03799000000,0.04600,
-0.03797999688,0.03800,
-0.03797000000,0.03800,
-0.03796000000,0.04400,
-0.03794999688,0.04400,
-0.03794000000,0.03800,
-0.03793000000,0.03400,
-0.03791999688,0.04200,
-0.03791000000,0.04400,
-0.03790000000,0.04000,
-0.03788999688,0.05200,
-0.03788000000,0.03400,
-0.03786999688,0.03600,
-0.03786000000,0.04200,
-0.03785000000,0.04000,
-0.03783999688,0.04200,
-0.03783000000,0.03600,
-0.03782000000,0.04800,
-0.03780999688,0.05200,
-0.03780000000,0.04200,
-0.03779000000,0.03800,
-0.03777999688,0.04600,
-0.03777000000,0.04400,
-0.03776000000,0.04600,
-0.03774999688,0.04200,
-0.03774000000,0.04000,
-0.03772999688,0.04000,
-0.03772000000,0.04800,
-0.03771000000,0.04600,
-0.03769999688,0.03600,
-0.03769000000,0.05000,
-0.03768000000,0.05000,
-0.03766999688,0.05400,
-0.03766000000,0.04000,
-0.03765000000,0.04400,
-0.03763999688,0.03800,
-0.03763000000,0.04200,
-0.03762000000,0.05400,
-0.03760999688,0.05000,
-0.03760000000,0.04200,
-0.03759000000,0.04600,
-0.03757999688,0.05200,
-0.03757000000,0.04600,
-0.03755999688,0.04600,
-0.03755000000,0.04200,
-0.03754000000,0.05800,
-0.03752999688,0.05000,
-0.03752000000,0.04400,
-0.03751000000,0.04600,
-0.03749999688,0.04200,
-0.03749000000,0.05600,
-0.03748000000,0.05600,
-0.03746999688,0.04800,
-0.03746000000,0.04800,
-0.03745000000,0.06000,
-0.03743999688,0.05400,
-0.03743000000,0.04800,
-0.03742000000,0.04200,
-0.03741000000,0.06000,
-0.03740000000,0.05800,
-0.03738999688,0.05200,
-0.03738000000,0.06400,
-0.03737000000,0.04600,
-0.03735999688,0.05200,
-0.03735000000,0.06000,
-0.03734000000,0.05800,
-0.03732999688,0.06000,
-0.03732000000,0.06000,
-0.03731000000,0.06800,
-0.03729999688,0.06400,
-0.03729000000,0.05800,
-0.03728000000,0.05400,
-0.03726999688,0.06600,
-0.03726000000,0.06600,
-0.03724999688,0.07800,
-0.03724000000,0.06000,
-0.03723000000,0.05600,
-0.03721999688,0.06600,
-0.03721000000,0.07200,
-0.03720000000,0.06800,
-0.03718999688,0.06200,
-0.03718000000,0.07600,
-0.03717000000,0.08600,
-0.03715999688,0.07800,
-0.03715000000,0.06600,
-0.03714000000,0.07800,
-0.03712999688,0.07400,
-0.03712000000,0.08600,
-0.03711000000,0.08400,
-0.03710000000,0.08400,
-0.03709000000,0.08200,
-0.03707999688,0.08600,
-0.03707000000,0.08800,
-0.03706000000,0.08000,
-0.03704999688,0.08800,
-0.03704000000,0.08800,
-0.03703000000,0.09600,
-0.03701999688,0.07600,
-0.03701000000,0.08000,
-0.03700000000,0.08000,
-0.03698999688,0.08400,
-0.03698000000,0.09400,
-0.03697000000,0.09600,
-0.03695999688,0.08400,
-0.03695000000,0.08600,
-0.03693999688,0.09600,
-0.03693000000,0.08800,
-0.03692000000,0.08000,
-0.03690999688,0.07200,
-0.03690000000,0.09600,
-0.03689000000,0.08800,
-0.03687999688,0.07800,
-0.03687000000,0.08800,
-0.03686000000,0.07800,
-0.03684999688,0.09000,
-0.03684000000,0.09600,
-0.03683000000,0.08800,
-0.03681999688,0.08400,
-0.03681000000,0.09200,
-0.03680000000,0.09200,
-0.03678999688,0.08000,
-0.03678000000,0.07200,
-0.03676999688,0.09000,
-0.03676000000,0.09600,
-0.03675000000,0.08600,
-0.03673999688,0.10400,
-0.03673000000,0.08400,
-0.03672000000,0.08400,
-0.03670999688,0.09600,
-0.03670000000,0.10200,
-0.03669000000,0.09600,
-0.03667999688,0.08800,
-0.03667000000,0.10200,
-0.03666000000,0.10200,
-0.03664999688,0.09000,
-0.03664000000,0.08400,
-0.03663000000,0.09800,
-0.03662000000,0.09400,
-0.03661000000,0.10400,
-0.03659999688,0.09800,
-0.03659000000,0.09000,
-0.03658000000,0.08800,
-0.03656999688,0.09600,
-0.03656000000,0.09200,
-0.03655000000,0.07600,
-0.03653999688,0.08800,
-0.03653000000,0.09200,
-0.03652000000,0.09000,
-0.03650999688,0.07600,
-0.03650000000,0.07800,
-0.03649000000,0.07400,
-0.03647999688,0.08000,
-0.03647000000,0.08400,
-0.03645999688,0.08200,
-0.03645000000,0.07800,
-0.03644000000,0.08200,
-0.03642999688,0.09000,
-0.03642000000,0.08600,
-0.03641000000,0.09200,
-0.03639999688,0.09800,
-0.03639000000,0.11600,
-0.03638000000,0.11600,
-0.03636999688,0.12200,
-0.03636000000,0.13000,
-0.03635000000,0.12800,
-0.03633999688,0.14800,
-0.03633000000,0.15800,
-0.03632000000,0.15000,
-0.03631000000,0.14800,
-0.03630000000,0.16600,
-0.03628999688,0.16400,
-0.03628000000,0.15800,
-0.03627000000,0.14800,
-0.03625999688,0.16400,
-0.03625000000,0.16200,
-0.03624000000,0.14600,
-0.03622999688,0.15200,
-0.03622000000,0.13800,
-0.03621000000,0.13800,
-0.03619999688,0.14000,
-0.03619000000,0.14200,
-0.03618000000,0.12800,
-0.03616999688,0.13000,
-0.03616000000,0.14000,
-0.03614999688,0.13600,
-0.03614000000,0.12600,
-0.03613000000,0.12400,
-0.03611999688,0.13400,
-0.03611000000,0.12600,
-0.03610000000,0.13400,
-0.03608999688,0.12600,
-0.03608000000,0.11800,
-0.03607000000,0.11800,
-0.03605999688,0.13200,
-0.03605000000,0.12600,
-0.03604000000,0.11400,
-0.03602999688,0.13400,
-0.03602000000,0.13600,
-0.03601000000,0.13400,
-0.03600000000,0.13200,
-0.03599000000,0.14000,
-0.03597999688,0.13200,
-0.03597000000,0.14400,
-0.03596000000,0.14400,
-0.03594999688,0.14400,
-0.03594000000,0.13600,
-0.03593000000,0.15000,
-0.03591999688,0.15400,
-0.03591000000,0.14000,
-0.03590000000,0.15200,
-0.03588999688,0.15800,
-0.03588000000,0.16000,
-0.03587000000,0.15400,
-0.03585999688,0.16200,
-0.03585000000,0.16200,
-0.03584000000,0.16000,
-0.03583000000,0.16400,
-0.03582000000,0.17000,
-0.03580999688,0.16200,
-0.03580000000,0.16400,
-0.03579000000,0.18000,
-0.03577999688,0.17200,
-0.03577000000,0.17000,
-0.03576000000,0.18000,
-0.03574999688,0.18400,
-0.03574000000,0.17800,
-0.03573000000,0.18000,
-0.03571999688,0.19000,
-0.03571000000,0.18200,
-0.03570000000,0.18600,
-0.03568999688,0.19400,
-0.03568000000,0.19000,
-0.03566999688,0.18600,
-0.03566000000,0.20200,
-0.03565000000,0.20400,
-0.03563999688,0.19400,
-0.03563000000,0.19400,
-0.03562000000,0.20200,
-0.03560999688,0.19400,
-0.03560000000,0.19200,
-0.03559000000,0.19400,
-0.03557999688,0.19000,
-0.03557000000,0.18800,
-0.03556000000,0.19200,
-0.03554999688,0.20200,
-0.03554000000,0.19400,
-0.03553000000,0.18800,
-0.03552000000,0.20600,
-0.03551000000,0.18400,
-0.03549999688,0.19000,
-0.03549000000,0.19800,
-0.03548000000,0.19800,
-0.03546999688,0.18600,
-0.03546000000,0.18800,
-0.03545000000,0.19400,
-0.03543999688,0.19800,
-0.03543000000,0.18800,
-0.03542000000,0.19800,
-0.03540999688,0.19800,
-0.03540000000,0.18200,
-0.03539000000,0.20000,
-0.03537999688,0.19800,
-0.03537000000,0.19000,
-0.03535999688,0.19400,
-0.03535000000,0.19400,
-0.03534000000,0.19400,
-0.03532999688,0.19000,
-0.03532000000,0.19400,
-0.03531000000,0.21200,
-0.03529999688,0.19200,
-0.03529000000,0.19400,
-0.03528000000,0.20200,
-0.03526999688,0.19000,
-0.03526000000,0.19400,
-0.03525000000,0.20600,
-0.03523999688,0.19200,
-0.03523000000,0.18600,
-0.03522000000,0.19600,
-0.03521000000,0.19800,
-0.03520000000,0.19200,
-0.03518999688,0.18600,
-0.03518000000,0.20000,
-0.03517000000,0.19600,
-0.03515999688,0.18400,
-0.03515000000,0.20000,
-0.03514000000,0.19400,
-0.03512999688,0.18000,
-0.03512000000,0.19200,
-0.03511000000,0.19000,
-0.03509999688,0.17800,
-0.03509000000,0.18000,
-0.03508000000,0.19600,
-0.03506999688,0.18600,
-0.03506000000,0.17200,
-0.03504999688,0.18000,
-0.03504000000,0.19000,
-0.03503000000,0.18000,
-0.03501999688,0.18200,
-0.03501000000,0.19000,
-0.03500000000,0.16200,
-0.03498999688,0.17200,
-0.03498000000,0.18800,
-0.03497000000,0.32000,
-0.03495999688,0.32000,
-0.03495000000,0.32000,
-0.03494000000,0.12400,
-0.03492999688,0.21200,
-0.03492000000,0.11400,
-0.03491000000,0.15200,
-0.03490000000,0.14400,
-0.03489000000,0.12600,
-0.03487999688,0.15200,
-0.03487000000,0.13600,
-0.03486000000,0.13000,
-0.03484999688,0.14200,
-0.03484000000,0.14600,
-0.03483000000,0.12800,
-0.03481999688,0.12800,
-0.03481000000,0.14200,
-0.03480000000,0.14800,
-0.03478999688,0.12800,
-0.03478000000,0.13000,
-0.03477000000,0.13800,
-0.03475999688,0.12000,
-0.03475000000,0.13600,
-0.03474000000,0.14600,
-0.03473000000,0.12200,
-0.03472000000,0.12400,
-0.03470999688,0.13200,
-0.03470000000,0.13200,
-0.03469000000,0.12000,
-0.03467999688,0.12800,
-0.03467000000,0.14800,
-0.03466000000,0.12800,
-0.03464999688,0.12600,
-0.03464000000,0.13600,
-0.03463000000,0.13200,
-0.03461999688,0.12600,
-0.03461000000,0.14600,
-0.03460000000,0.14000,
-0.03458999688,0.11800,
-0.03458000000,0.13400,
-0.03456999688,0.14600,
-0.03456000000,0.13000,
-0.03455000000,0.12400,
-0.03453999688,0.15000,
-0.03453000000,0.14200,
-0.03452000000,0.12600,
-0.03450999688,0.14000,
-0.03450000000,0.14000,
-0.03449000000,0.12000,
-0.03447999688,0.12800,
-0.03447000000,0.14800,
-0.03446000000,0.13400,
-0.03444999688,0.13000,
-0.03444000000,0.14600,
-0.03443000000,0.14400,
-0.03442000000,0.11800,
-0.03441000000,0.12800,
-0.03439999688,0.13800,
-0.03439000000,0.12800,
-0.03438000000,0.08800,
-0.03436999688,0.09400,
-0.03436000000,0.07000,
-0.03435000000,0.05200,
-0.03433999688,0.06800,
-0.03433000000,0.06600,
-0.03432000000,0.05600,
-0.03430999688,0.06000,
-0.03430000000,0.07600,
-0.03429000000,0.06200,
-0.03427999688,0.05800,
-0.03427000000,0.07400,
-0.03425999688,0.07200,
-0.03425000000,0.06000,
-0.03424000000,0.08000,
-0.03422999688,0.09200,
-0.03422000000,0.07800,
-0.03421000000,0.08800,
-0.03419999688,0.10200,
-0.03419000000,0.09600,
-0.03418000000,0.09800,
-0.03416999688,0.12000,
-0.03416000000,0.12600,
-0.03415000000,0.10400,
-0.03413999688,0.12000,
-0.03413000000,0.13400,
-0.03412000000,0.12200,
-0.03411000000,0.12000,
-0.03410000000,0.15200,
-0.03408999688,0.14800,
-0.03408000000,0.13000,
-0.03407000000,0.14600,
-0.03405999688,0.15800,
-0.03405000000,0.14000,
-0.03404000000,0.15000,
-0.03402999688,0.16800,
-0.03402000000,0.15200,
-0.03401000000,0.15000,
-0.03399999688,0.17400,
-0.03399000000,0.17000,
-0.03398000000,0.15400,
-0.03396999688,0.16600,
-0.03396000000,0.18400,
-0.03395000000,0.16400,
-0.03394000000,0.16400,
-0.03393000000,0.18600,
-0.03391999688,0.16200,
-0.03391000000,0.15600,
-0.03390000000,0.18000,
-0.03388999688,0.17800,
-0.03388000000,0.16400,
-0.03387000000,0.17200,
-0.03385999688,0.18400,
-0.03385000000,0.16600,
-0.03384000000,0.14800,
-0.03382999688,0.17200,
-0.03382000000,0.16000,
-0.03381000000,0.14400,
-0.03380000000,0.14800,
-0.03379000000,0.14200,
-0.03377999688,0.11600,
-0.03377000000,0.12200,
-0.03376000000,0.13200,
-0.03374999688,0.11200,
-0.03374000000,0.10200,
-0.03373000000,0.11200,
-0.03371999688,0.11400,
-0.03371000000,0.09400,
-0.03370000000,0.10000,
-0.03368999688,0.11800,
-0.03368000000,0.10800,
-0.03367000000,0.12000,
-0.03365999688,0.14600,
-0.03365000000,0.14400,
-0.03364000000,0.14600,
-0.03363000000,0.17600,
-0.03362000000,0.19200,
-0.03360999688,0.18000,
-0.03360000000,0.19600,
-0.03359000000,0.22800,
-0.03357999688,0.21800,
-0.03357000000,0.21400,
-0.03356000000,0.22600,
-0.03354999688,0.23000,
-0.03354000000,0.21000,
-0.03353000000,0.23400,
-0.03351999688,0.22600,
-0.03351000000,0.19600,
-0.03350000000,0.20000,
-0.03348999688,0.20800,
-0.03348000000,0.19800,
-0.03346999688,0.18600,
-0.03346000000,0.19800,
-0.03345000000,0.20000,
-0.03343999688,0.17200,
-0.03343000000,0.17200,
-0.03342000000,0.18400,
-0.03340999688,0.16000,
-0.03340000000,0.16600,
-0.03339000000,0.17000,
-0.03337999688,0.15400,
-0.03337000000,0.14800,
-0.03336000000,0.16200,
-0.03334999688,0.15800,
-0.03334000000,0.14600,
-0.03333000000,0.13600,
-0.03332000000,0.15200,
-0.03331000000,0.14400,
-0.03329999688,0.14000,
-0.03329000000,0.16200,
-0.03328000000,0.14600,
-0.03326999688,0.14200,
-0.03326000000,0.16000,
-0.03325000000,0.16800,
-0.03323999688,0.16200,
-0.03323000000,0.16600,
-0.03322000000,0.17000,
-0.03320999688,0.17200,
-0.03320000000,0.16400,
-0.03319000000,0.18200,
-0.03317999688,0.18600,
-0.03317000000,0.17600,
-0.03315999688,0.18600,
-0.03315000000,0.19000,
-0.03314000000,0.18000,
-0.03312999688,0.18600,
-0.03312000000,0.20000,
-0.03311000000,0.19000,
-0.03309999688,0.18200,
-0.03309000000,0.19400,
-0.03308000000,0.19800,
-0.03306999688,0.18800,
-0.03306000000,0.19200,
-0.03305000000,0.20200,
-0.03303999688,0.19000,
-0.03303000000,0.19000,
-0.03302000000,0.20200,
-0.03301000000,0.20400,
-0.03300000000,0.19400,
-0.03298999688,0.19800,
-0.03298000000,0.20400,
-0.03297000000,0.19400,
-0.03295999688,0.20000,
-0.03295000000,0.21000,
-0.03294000000,0.20400,
-0.03292999688,0.19400,
-0.03292000000,0.20200,
-0.03291000000,0.21200,
-0.03289999688,0.19000,
-0.03289000000,0.21600,
-0.03288000000,0.21000,
-0.03286999688,0.20400,
-0.03286000000,0.20400,
-0.03285000000,0.21200,
-0.03284000000,0.20600,
-0.03283000000,0.20600,
-0.03281999688,0.21000,
-0.03281000000,0.21400,
-0.03280000000,0.20400,
-0.03278999688,0.20600,
-0.03278000000,0.22200,
-0.03277000000,0.20200,
-0.03275999688,0.20800,
-0.03275000000,0.20800,
-0.03274000000,0.21000,
-0.03272999688,0.20600,
-0.03272000000,0.21000,
-0.03271000000,0.20000,
-0.03270000000,0.20200,
-0.03269000000,0.20200,
-0.03267999688,0.21400,
-0.03267000000,0.20800,
-0.03266000000,0.20200,
-0.03264999688,0.22000,
-0.03264000000,0.20800,
-0.03263000000,0.20400,
-0.03261999688,0.20400,
-0.03261000000,0.20800,
-0.03260000000,0.20800,
-0.03258999688,0.20200,
-0.03258000000,0.21000,
-0.03257000000,0.20000,
-0.03255999688,0.19600,
-0.03255000000,0.20600,
-0.03254000000,0.20800,
-0.03253000000,0.19400,
-0.03252000000,0.19800,
-0.03250999688,0.20200,
-0.03250000000,0.20200,
-0.03249000000,0.19000,
-0.03247999688,0.19000,
-0.03247000000,0.19400,
-0.03246000000,0.18800,
-0.03244999688,0.19600,
-0.03244000000,0.19200,
-0.03243000000,0.18400,
-0.03241999688,0.18600,
-0.03241000000,0.18800,
-0.03240000000,0.18200,
-0.03238999688,0.17400,
-0.03238000000,0.17600,
-0.03236999688,0.18400,
-0.03236000000,0.17200,
-0.03235000000,0.16400,
-0.03233999688,0.16800,
-0.03233000000,0.15200,
-0.03232000000,0.16800,
-0.03230999688,0.16600,
-0.03230000000,0.15400,
-0.03229000000,0.15000,
-0.03227999688,0.15400,
-0.03227000000,0.16000,
-0.03226000000,0.14000,
-0.03224999688,0.14200,
-0.03224000000,0.14000,
-0.03223000000,0.14000,
-0.03222000000,0.13400,
-0.03221000000,0.13800,
-0.03219999688,0.12800,
-0.03219000000,0.12800,
-0.03218000000,0.13400,
-0.03216999688,0.13600,
-0.03216000000,0.13000,
-0.03215000000,0.12600,
-0.03213999688,0.13600,
-0.03213000000,0.12600,
-0.03212000000,0.12000,
-0.03210999688,0.11000,
-0.03210000000,0.12000,
-0.03209000000,0.12000,
-0.03207999688,0.11800,
-0.03207000000,0.11600,
-0.03206000000,0.10800,
-0.03205000000,0.11200,
-0.03204000000,0.11600,
-0.03202999688,0.11400,
-0.03202000000,0.10800,
-0.03201000000,0.11200,
-0.03199999688,0.10600,
-0.03199000000,0.11200,
-0.03198000000,0.10000,
-0.03196999688,0.10200,
-0.03196000000,0.10800,
-0.03195000000,0.10400,
-0.03193999688,0.11000,
-0.03193000000,0.09800,
-0.03192000000,0.09800,
-0.03191000000,0.09800,
-0.03190000000,0.09800,
-0.03188999688,0.09200,
-0.03188000000,0.08600,
-0.03187000000,0.09000,
-0.03185999688,0.09800,
-0.03185000000,0.08600,
-0.03184000000,0.08400,
-0.03182999688,0.09000,
-0.03182000000,0.07800,
-0.03181000000,0.09400,
-0.03179999688,0.09000,
-0.03179000000,0.08600,
-0.03178000000,0.08000,
-0.03176999688,0.08600,
-0.03176000000,0.08800,
-0.03175000000,0.07800,
-0.03174000000,0.08000,
-0.03173000000,0.08800,
-0.03171999688,0.09200,
-0.03171000000,0.08000,
-0.03170000000,0.08600,
-0.03168999688,0.08600,
-0.03168000000,0.08800,
-0.03167000000,0.09200,
-0.03165999688,0.10000,
-0.03165000000,0.08800,
-0.03164000000,0.08600,
-0.03162999688,0.09600,
-0.03162000000,0.11000,
-0.03161000000,0.08600,
-0.03160000000,0.08400,
-0.03159000000,0.11200,
-0.03157999688,0.11800,
-0.03157000000,0.10600,
-0.03156000000,0.18600,
-0.03154999688,0.17400,
-0.03154000000,0.14200,
-0.03153000000,0.14400,
-0.03151999688,0.14200,
-0.03151000000,0.12800,
-0.03150000000,0.13400,
-0.03148999688,0.14600,
-0.03148000000,0.14800,
-0.03147000000,0.11600,
-0.03145999688,0.14000,
-0.03145000000,0.14800,
-0.03144000000,0.14000,
-0.03143000000,0.15000,
-0.03142000000,0.13000,
-0.03140999688,0.12400,
-0.03140000000,0.13400,
-0.03139000000,0.14200,
-0.03137999688,0.13000,
-0.03137000000,0.12400,
-0.03136000000,0.14400,
-0.03134999688,0.16600,
-0.03134000000,0.13400,
-0.03133000000,0.12600,
-0.03131999688,0.14000,
-0.03131000000,0.11800,
-0.03130000000,0.14400,
-0.03129000000,0.14400,
-0.03128000000,0.13200,
-0.03126999688,0.12800,
-0.03126000000,0.13800,
-0.03125000000,0.14000,
-0.03124000000,0.12000,
-0.03123000000,0.13800,
-0.03121999688,0.14600,
-0.03121000000,0.14000,
-0.03120000000,0.12200,
-0.03119000000,0.12600,
-0.03118000000,0.11800,
-0.03117000000,0.12800,
-0.03116000000,0.15000,
-0.03114999688,0.13600,
-0.03114000000,0.13000,
-0.03113000000,0.13000,
-0.03112000000,0.15000,
-0.03111000000,0.12800,
-0.03110000000,0.11800,
-0.03109000000,0.12600,
-0.03108000000,0.14600,
-0.03107000000,0.13400,
-0.03106000000,0.12800,
-0.03105000000,0.13600,
-0.03104000000,0.11600,
-0.03103000000,0.12200,
-0.03102000000,0.13600,
-0.03101000000,0.12800,
-0.03100000000,0.11400,
-0.03099000000,0.13000,
-0.03097999688,0.12800,
-0.03097000000,0.11600,
-0.03096000000,0.10600,
-0.03095000000,0.13000,
-0.03094000000,0.13000,
-0.03093000000,0.11800,
-0.03092000000,0.13200,
-0.03090999688,0.11200,
-0.03090000000,0.10800,
-0.03089000000,0.12400,
-0.03088000000,0.13200,
-0.03087000000,0.12000,
-0.03086000000,0.12000,
-0.03085000000,0.14200,
-0.03084000000,0.14400,
-0.03083000000,0.11400,
-0.03082000000,0.12200,
-0.03081000000,0.13800,
-0.03080000000,0.11800,
-0.03079000000,0.14200,
-0.03078000000,0.12600,
-0.03077000000,0.11800,
-0.03076000000,0.12000,
-0.03075000000,0.13200,
-0.03074000000,0.12200,
-0.03073000000,0.10800,
-0.03072000000,0.12400,
-0.03071000000,0.13400,
-0.03070000000,0.12000,
-0.03069000000,0.10600,
-0.03068000000,0.12400,
-0.03066999688,0.10200,
-0.03066000000,0.12200,
-0.03065000000,0.13800,
-0.03064000000,0.12000,
-0.03063000000,0.10800,
-0.03062000000,0.12000,
-0.03061000000,0.13200,
-0.03059999688,0.10400,
-0.03059000000,0.11600,
-0.03058000000,0.12000,
-0.03057000000,0.12600,
-0.03056000000,0.11600,
-0.03055000000,0.12400,
-0.03054000000,0.10800,
-0.03053000000,0.11400,
-0.03052000000,0.12600,
-0.03051000000,0.12600,
-0.03050000000,0.11400,
-0.03049000000,0.11600,
-0.03048000000,0.13800,
-0.03047000000,0.11400,
-0.03046000000,0.11200,
-0.03045000000,0.11200,
-0.03044000000,0.12600,
-0.03042999688,0.11800,
-0.03042000000,0.12600,
-0.03041000000,0.11800,
-0.03040000000,0.10600,
-0.03039000000,0.11200,
-0.03038000000,0.12600,
-0.03037000000,0.12000,
-0.03035999688,0.11000,
-0.03035000000,0.12200,
-0.03034000000,0.12000,
-0.03033000000,0.11600,
-0.03032000000,0.11000,
-0.03031000000,0.11400,
-0.03030000000,0.11600,
-0.03029000000,0.11400,
-0.03028000000,0.12200,
-0.03027000000,0.10800,
-0.03026000000,0.11200,
-0.03025000000,0.11800,
-0.03024000000,0.12000,
-0.03023000000,0.10800,
-0.03022000000,0.11200,
-0.03021000000,0.11600,
-0.03020000000,0.12000,
-0.03019000000,0.11400,
-0.03018000000,0.11200,
-0.03017000000,0.11600,
-0.03016000000,0.11200,
-0.03015000000,0.12600,
-0.03014000000,0.11600,
-0.03013000000,0.11800,
-0.03011999688,0.10600,
-0.03011000000,0.11600,
-0.03010000000,0.11400,
-0.03009000000,0.10400,
-0.03008000000,0.11200,
-0.03007000000,0.11800,
-0.03006000000,0.11400,
-0.03004999688,0.11200,
-0.03004000000,0.11400,
-0.03003000000,0.11000,
-0.03002000000,0.12000,
-0.03001000000,0.11800,
-0.03000000000,0.12000,
-0.02999000000,0.10800,
-0.02998000000,0.11400,
-0.02997000000,0.12400,
-0.02996000000,0.10600,
-0.02995000000,0.12400,
-0.02994000000,0.11200,
-0.02993000000,0.11600,
-0.02992000000,0.11200,
-0.02991000000,0.11800,
-0.02990000000,0.11000,
-0.02989000000,0.11200,
-0.02987999688,0.10600,
-0.02987000000,0.11800,
-0.02986000000,0.11200,
-0.02985000000,0.11600,
-0.02984000000,0.12400,
-0.02983000000,0.11200,
-0.02982000000,0.10600,
-0.02980999688,0.11200,
-0.02980000000,0.11400,
-0.02979000000,0.11200,
-0.02978000000,0.11200,
-0.02977000000,0.10600,
-0.02976000000,0.10800,
-0.02975000000,0.10600,
-0.02974000000,0.11600,
-0.02973000000,0.11600,
-0.02972000000,0.10400,
-0.02971000000,0.11200,
-0.02970000000,0.10800,
-0.02969000000,0.10400,
-0.02968000000,0.11200,
-0.02967000000,0.11400,
-0.02966000000,0.11200,
-0.02965000000,0.09600,
-0.02964000000,0.11400,
-0.02963000000,0.10800,
-0.02962000000,0.11600,
-0.02961000000,0.10600,
-0.02960000000,0.11200,
-0.02959000000,0.11000,
-0.02958000000,0.10400,
-0.02956999688,0.12200,
-0.02956000000,0.11200,
-0.02955000000,0.11200,
-0.02954000000,0.11200,
-0.02953000000,0.11600,
-0.02952000000,0.10800,
-0.02951000000,0.11400,
-0.02950000000,0.11600,
-0.02949000000,0.11800,
-0.02948000000,0.10800,
-0.02947000000,0.10800,
-0.02946000000,0.11800,
-0.02945000000,0.10600,
-0.02944000000,0.12600,
-0.02943000000,0.11600,
-0.02942000000,0.11200,
-0.02941000000,0.11000,
-0.02940000000,0.11400,
-0.02939000000,0.12000,
-0.02938000000,0.11800,
-0.02937000000,0.10600,
-0.02936000000,0.11800,
-0.02935000000,0.11800,
-0.02934000000,0.10600,
-0.02932999688,0.12600,
-0.02932000000,0.11000,
-0.02931000000,0.10800,
-0.02930000000,0.11400,
-0.02929000000,0.11600,
-0.02928000000,0.10600,
-0.02927000000,0.11400,
-0.02925999688,0.12400,
-0.02925000000,0.11600,
-0.02924000000,0.09400,
-0.02923000000,0.11200,
-0.02922000000,0.12000,
-0.02921000000,0.10600,
-0.02920000000,0.11200,
-0.02919000000,0.10600,
-0.02918000000,0.09600,
-0.02917000000,0.10600,
-0.02916000000,0.12000,
-0.02915000000,0.11200,
-0.02914000000,0.10200,
-0.02913000000,0.10600,
-0.02912000000,0.11800,
-0.02911000000,0.10200,
-0.02910000000,0.09800,
-0.02909000000,0.12000,
-0.02908000000,0.10600,
-0.02907000000,0.10000,
-0.02906000000,0.12200,
-0.02905000000,0.10800,
-0.02904000000,0.10200,
-0.02903000000,0.11200,
-0.02901999688,0.11400,
-0.02901000000,0.09800,
-0.02900000000,0.09200,
-0.02899000000,0.12400,
-0.02898000000,0.11600,
-0.02897000000,0.09600,
-0.02896000000,0.11200,
-0.02895000000,0.11000,
-0.02894000000,0.09800,
-0.02893000000,0.12000,
-0.02892000000,0.12800,
-0.02891000000,0.09800,
-0.02890000000,0.10200,
-0.02889000000,0.11400,
-0.02888000000,0.10400,
-0.02887000000,0.09400,
-0.02886000000,0.11000,
-0.02885000000,0.12600,
-0.02884000000,0.10000,
-0.02883000000,0.10000,
-0.02882000000,0.12400,
-0.02881000000,0.09800,
-0.02880000000,0.09800,
-0.02879000000,0.11800,
-0.02877999688,0.10600,
-0.02877000000,0.09600,
-0.02876000000,0.10800,
-0.02875000000,0.12000,
-0.02874000000,0.09800,
-0.02873000000,0.09000,
-0.02872000000,0.11800,
-0.02870999688,0.10800,
-0.02870000000,0.09000,
-0.02869000000,0.11400,
-0.02868000000,0.10800,
-0.02867000000,0.08400,
-0.02866000000,0.10600,
-0.02865000000,0.11600,
-0.02864000000,0.09800,
-0.02863000000,0.10000,
-0.02862000000,0.12000,
-0.02861000000,0.10800,
-0.02860000000,0.08400,
-0.02859000000,0.10400,
-0.02858000000,0.11600,
-0.02857000000,0.10200,
-0.02856000000,0.10000,
-0.02855000000,0.12400,
-0.02854000000,0.09400,
-0.02853000000,0.09400,
-0.02852000000,0.11200,
-0.02851000000,0.11000,
-0.02850000000,0.09000,
-0.02849000000,0.11200,
-0.02848000000,0.12400,
-0.02846999688,0.09800,
-0.02846000000,0.09400,
-0.02845000000,0.11200,
-0.02844000000,0.10400,
-0.02843000000,0.09000,
-0.02842000000,0.11600,
-0.02841000000,0.12200,
-0.02840000000,0.08800,
-0.02839000000,0.09800,
-0.02838000000,0.11600,
-0.02837000000,0.09400,
-0.02836000000,0.09000,
-0.02835000000,0.13200,
-0.02834000000,0.11200,
-0.02833000000,0.08800,
-0.02832000000,0.10600,
-0.02831000000,0.11400,
-0.02830000000,0.09000,
-0.02829000000,0.09600,
-0.02828000000,0.12600,
-0.02827000000,0.10200,
-0.02826000000,0.09200,
-0.02825000000,0.11200,
-0.02824000000,0.11200,
-0.02822999688,0.08600,
-0.02822000000,0.11200,
-0.02821000000,0.12600,
-0.02820000000,0.09600,
-0.02819000000,0.10200,
-0.02818000000,0.12400,
-0.02817000000,0.10800,
-0.02816000000,0.08800,
-0.02815000000,0.11800,
-0.02814000000,0.12000,
-0.02813000000,0.09400,
-0.02812000000,0.11200,
-0.02811000000,0.11600,
-0.02810000000,0.08800,
-0.02809000000,0.08800,
-0.02808000000,0.12000,
-0.02807000000,0.10000,
-0.02806000000,0.08600,
-0.02805000000,0.10800,
-0.02804000000,0.11000,
-0.02803000000,0.08000,
-0.02802000000,0.08200,
-0.02801000000,0.10600,
-0.02800000000,0.09000,
-0.02799000000,0.08400,
-0.02798000000,0.10400,
-0.02797000000,0.08600,
-0.02796000000,0.07800,
-0.02795000000,0.09600,
-0.02794000000,0.10200,
-0.02793000000,0.08000,
-0.02791999688,0.08600,
-0.02791000000,0.10000,
-0.02790000000,0.10000,
-0.02789000000,0.08600,
-0.02788000000,0.09800,
-0.02787000000,0.10200,
-0.02786000000,0.08600,
-0.02785000000,0.11000,
-0.02784000000,0.11200,
-0.02783000000,0.09000,
-0.02782000000,0.09200,
-0.02781000000,0.10800,
-0.02780000000,0.09600,
-0.02779000000,0.08400,
-0.02778000000,0.09800,
-0.02777000000,0.12000,
-0.02776000000,0.09400,
-0.02775000000,0.09400,
-0.02774000000,0.10000,
-0.02773000000,0.09400,
-0.02772000000,0.09800,
-0.02771000000,0.11600,
-0.02770000000,0.10200,
-0.02769000000,0.08800,
-0.02767999688,0.10000,
-0.02767000000,0.10600,
-0.02766000000,0.09800,
-0.02765000000,0.09800,
-0.02764000000,0.10200,
-0.02763000000,0.09800,
-0.02762000000,0.09000,
-0.02761000000,0.09800,
-0.02760000000,0.10400,
-0.02759000000,0.08400,
-0.02758000000,0.09800,
-0.02757000000,0.09800,
-0.02756000000,0.09000,
-0.02755000000,0.09200,
-0.02754000000,0.10600,
-0.02753000000,0.09800,
-0.02752000000,0.08400,
-0.02751000000,0.09000,
-0.02750000000,0.09600,
-0.02749000000,0.09200,
-0.02748000000,0.08800,
-0.02747000000,0.09800,
-0.02746000000,0.07600,
-0.02745000000,0.08200,
-0.02744000000,0.09600,
-0.02743000000,0.08600,
-0.02742000000,0.08400,
-0.02741000000,0.08200,
-0.02740000000,0.08600,
-0.02739000000,0.08600,
-0.02738000000,0.08200,
-0.02736999688,0.09200,
-0.02736000000,0.08800,
-0.02735000000,0.07800,
-0.02734000000,0.08800,
-0.02733000000,0.08000,
-0.02732000000,0.08200,
-0.02731000000,0.08800,
-0.02730000000,0.09000,
-0.02729000000,0.08000,
-0.02728000000,0.08400,
-0.02727000000,0.08400,
-0.02726000000,0.09400,
-0.02725000000,0.08400,
-0.02724000000,0.08600,
-0.02723000000,0.08800,
-0.02722000000,0.08000,
-0.02721000000,0.08800,
-0.02720000000,0.09400,
-0.02719000000,0.08200,
-0.02718000000,0.08800,
-0.02717000000,0.08600,
-0.02716000000,0.08800,
-0.02715000000,0.09000,
-0.02714000000,0.09200,
-0.02712999688,0.09400,
-0.02712000000,0.08600,
-0.02711000000,0.08800,
-0.02710000000,0.09200,
-0.02709000000,0.09000,
-0.02708000000,0.08800,
-0.02707000000,0.09000,
-0.02706000000,0.08800,
-0.02705000000,0.09000,
-0.02704000000,0.09000,
-0.02703000000,0.09200,
-0.02702000000,0.08600,
-0.02701000000,0.09200,
-0.02700000000,0.08600,
-0.02699000000,0.09000,
-0.02698000000,0.08600,
-0.02697000000,0.09000,
-0.02696000000,0.09000,
-0.02695000000,0.09000,
-0.02694000000,0.08600,
-0.02693000000,0.08000,
-0.02692000000,0.09000,
-0.02691000000,0.32000,
-0.02690000000,0.32000,
-0.02689000000,0.16800,
-0.02688000000,0.32000,
-0.02687000000,0.18200,
-0.02686000000,0.24600,
-0.02685000000,0.20000,
-0.02684000000,0.17600,
-0.02683000000,0.21400,
-0.02681999688,0.18600,
-0.02681000000,0.19400,
-0.02680000000,0.18600,
-0.02679000000,0.19400,
-0.02678000000,0.19200,
-0.02677000000,0.18800,
-0.02676000000,0.18800,
-0.02675000000,0.18000,
-0.02674000000,0.17800,
-0.02673000000,0.19200,
-0.02672000000,0.18600,
-0.02671000000,0.17000,
-0.02670000000,0.18000,
-0.02669000000,0.18200,
-0.02668000000,0.19200,
-0.02667000000,0.16600,
-0.02666000000,0.17800,
-0.02665000000,0.17400,
-0.02664000000,0.17600,
-0.02663000000,0.18000,
-0.02662000000,0.17600,
-0.02661000000,0.16400,
-0.02660000000,0.16800,
-0.02659000000,0.17800,
-0.02657999688,0.16200,
-0.02657000000,0.16000,
-0.02656000000,0.16600,
-0.02655000000,0.18000,
-0.02654000000,0.16200,
-0.02653000000,0.15800,
-0.02652000000,0.16600,
-0.02651000000,0.15200,
-0.02650000000,0.17200,
-0.02649000000,0.16800,
-0.02648000000,0.15600,
-0.02647000000,0.15200,
-0.02646000000,0.16200,
-0.02645000000,0.16800,
-0.02644000000,0.14400,
-0.02643000000,0.14400,
-0.02642000000,0.16000,
-0.02641000000,0.15800,
-0.02640000000,0.14600,
-0.02639000000,0.15200,
-0.02638000000,0.13800,
-0.02637000000,0.15000,
-0.02636000000,0.15200,
-0.02635000000,0.15200,
-0.02634000000,0.13600,
-0.02633000000,0.14600,
-0.02632000000,0.15600,
-0.02631000000,0.14000,
-0.02630000000,0.13600,
-0.02629000000,0.13600,
-0.02628000000,0.14800,
-0.02627000000,0.14000,
-0.02626000000,0.15000,
-0.02625000000,0.13000,
-0.02624000000,0.12600,
-0.02623000000,0.13200,
-0.02622000000,0.14400,
-0.02620999844,0.13000,
-0.02620000000,0.12000,
-0.02619000000,0.14000,
-0.02617999844,0.13600,
-0.02616999844,0.14200,
-0.02616000000,0.11200,
-0.02615000000,0.13400,
-0.02613999844,0.12800,
-0.02613000000,0.13200,
-0.02612000000,0.14200,
-0.02610999844,0.11200,
-0.02609999844,0.11600,
-0.02609000000,0.12800,
-0.02608000000,0.12600,
-0.02606999844,0.10800,
-0.02606000000,0.13000,
-0.02605000000,0.11000,
-0.02603999844,0.13800,
-0.02602999844,0.10200,
-0.02602000000,0.11000,
-0.02600999844,0.11400,
-0.02599999844,0.10400,
-0.02599000000,0.13000,
-0.02598000000,0.12000,
-0.02596999844,0.10200,
-0.02596000000,0.11000,
-0.02595000000,0.11600,
-0.02593999844,0.11200,
-0.02592999844,0.10000,
-0.02592000000,0.09800,
-0.02591000000,0.12200,
-0.02589999844,0.10200,
-0.02589000000,0.09400,
-0.02588000000,0.10600,
-0.02586999844,0.08600,
-0.02585999844,0.10800,
-0.02585000000,0.11200,
-0.02584000000,0.10200,
-0.02582999844,0.09000,
-0.02582000000,0.10600,
-0.02581000000,0.11200,
-0.02579999844,0.08600,
-0.02578999844,0.07800,
-0.02578000000,0.09600,
-0.02577000000,0.11200,
-0.02575999844,0.08600,
-0.02575000000,0.11000,
-0.02574000000,0.08000,
-0.02572999844,0.08400,
-0.02572000000,0.09600,
-0.02571000000,0.10200,
-0.02569999844,0.08600,
-0.02568999844,0.08400,
-0.02568000000,0.10400,
-0.02567000000,0.08800,
-0.02565999844,0.08600,
-0.02565000000,0.08000,
-0.02564000000,0.10400,
-0.02562999844,0.09000,
-0.02561999844,0.10200,
-0.02561000000,0.09200,
-0.02560000000,0.08000,
-0.02558999844,0.08800,
-0.02558000000,0.09600,
-0.02557000000,0.09000,
-0.02555999844,0.08000,
-0.02554999844,0.09000,
-0.02554000000,0.09400,
-0.02553000000,0.08400,
-0.02551999844,0.07200,
-0.02551000000,0.08400,
-0.02550000000,0.07600,
-0.02548999844,0.08400,
-0.02547999844,0.08600,
-0.02547000000,0.07600,
-0.02545999844,0.07400,
-0.02544999844,0.08400,
-0.02544000000,0.08400,
-0.02543000000,0.07400,
-0.02541999844,0.08400,
-0.02541000000,0.08800,
-0.02540000000,0.09600,
-0.02538999844,0.07600,
-0.02537999844,0.08000,
-0.02537000000,0.07400,
-0.02536000000,0.07200,
-0.02534999844,0.08600,
-0.02534000000,0.07600,
-0.02533000000,0.05800,
-0.02531999844,0.05600,
-0.02530999844,0.06200,
-0.02530000000,0.07600,
-0.02529000000,0.04600,
-0.02527999844,0.04200,
-0.02527000000,0.05800,
-0.02526000000,0.08200,
-0.02524999844,0.05600,
-0.02523999844,0.06400,
-0.02523000000,0.05800,
-0.02522000000,0.04200,
-0.02520999844,0.05800,
-0.02520000000,0.07400,
-0.02519000000,0.05200,
-0.02517999844,0.05000,
-0.02517000000,0.06600,
-0.02516000000,0.06000,
-0.02514999844,0.04800,
-0.02513999844,0.03600,
-0.02513000000,0.06600,
-0.02512000000,0.06000,
-0.02510999844,0.06600,
-0.02510000000,0.06200,
-0.02509000000,0.03200,
-0.02507999844,0.04600,
-0.02506999844,0.06000,
-0.02506000000,0.05200,
-0.02505000000,0.03800,
-0.02503999844,0.05600,
-0.02503000000,0.05800,
-0.02502000000,0.06000,
-0.02500999844,0.03200,
-0.02499999844,0.05400,
-0.02499000000,0.05000,
-0.02498000000,0.05200,
-0.02496999844,0.05800,
-0.02496000000,0.03200,
-0.02495000000,0.03400,
-0.02493999844,0.04800,
-0.02492999844,0.04800,
-0.02492000000,0.03200,
-0.02491000000,0.03400,
-0.02489999844,0.05400,
-0.02489000000,0.06000,
-0.02488000000,0.03000,
-0.02486999844,0.02800,
-0.02486000000,0.03800,
-0.02485000000,0.02800,
-0.02483999844,0.05000,
-0.02482999844,0.05800,
-0.02482000000,0.03200,
-0.02481000000,0.02800,
-0.02479999844,0.04000,
-0.02479000000,0.05400,
-0.02478000000,0.01600,
-0.02476999844,0.02400,
-0.02475999844,0.04000,
-0.02475000000,0.05600,
-0.02474000000,0.02000,
-0.02472999844,0.03400,
-0.02472000000,0.02000,
-0.02471000000,0.03000,
-0.02469999844,0.04600,
-0.02468999844,0.04200,
-0.02468000000,0.02600,
-0.02467000000,0.03000,
-0.02465999844,0.04800,
-0.02465000000,0.02800,
-0.02464000000,0.01200,
-0.02462999844,0.02000,
-0.02462000000,0.04000,
-0.02461000000,0.03600,
-0.02459999844,0.03200,
-0.02458999844,0.03200,
-0.02458000000,0.01200,
-0.02457000000,0.02200,
-0.02455999844,0.04000,
-0.02455000000,0.03200,
-0.02454000000,0.01800,
-0.02452999844,0.03000,
-0.02451999844,0.04200,
-0.02451000000,0.03200,
-0.02450000000,0.00800,
-0.02448999844,0.02600,
-0.02448000000,0.03200,
-0.02447000000,0.02600,
-0.02445999844,0.03600,
-0.02444999844,0.01200,
-0.02444000000,0.01000,
-0.02443000000,0.02400,
-0.02441999844,0.03200,
-0.02441000000,0.00800,
-0.02440000000,0.01200,
-0.02438999844,0.02600,
-0.02438000000,0.03600,
-0.02437000000,0.01600,
-0.02436000000,0.01200,
-0.02434999844,0.02200,
-0.02434000000,0.02000,
-0.02433000000,0.02800,
-0.02431999844,0.03600,
-0.02431000000,0.01600,
-0.02430000000,0.01200,
-0.02428999844,0.02200,
-0.02427999844,0.03000,
-0.02427000000,0.00,
-0.02426000000,0.02400,
-0.02424999844,0.03000,
-0.02424000000,0.02400,
-0.02423000000,0.01000,
-0.02421999844,0.02200,
-0.02420999844,0.01800,
-0.02420000000,0.02400,
-0.02419000000,0.02800,
-0.02417999844,0.02800,
-0.02417000000,0.00600,
-0.02416000000,0.01400,
-0.02414999844,0.03600,
-0.02413999844,0.00200,
-0.02413000000,0.01600,
-0.02412000000,0.02200,
-0.02410999844,0.02000,
-0.02410000000,0.01000,
-0.02409000000,0.02400,
-0.02407999844,0.01400,
-0.02407000000,0.00800,
-0.02406000000,0.01200,
-0.02404999844,0.02200,
-0.02403999844,0.01400,
-0.02403000000,0.00600,
-0.02402000000,0.02600,
-0.02400999844,0.01000,
-0.02400000000,0.00,
-0.02399000000,0.01600,
-0.02397999844,0.02000,
-0.02396999844,0.01200,
-0.02396000000,0.00800,
-0.02395000000,0.01400,
-0.02393999844,0.00600,
-0.02393000000,-0.00200,
-0.02392000000,0.01800,
-0.02390999844,0.01800,
-0.02389999844,0.00,
-0.02389000000,0.01600,
-0.02388000000,0.00600,
-0.02386999844,-0.00200,
-0.02386000000,0.00600,
-0.02385000000,0.02200,
-0.02383999844,0.00600,
-0.02383000000,-0.00200,
-0.02382000000,0.01000,
-0.02381000000,0.01400,
-0.02379999844,0.00200,
-0.02379000000,0.00400,
-0.02378000000,0.02200,
-0.02376999844,-0.00800,
-0.02376000000,0.00400,
-0.02375000000,0.03200,
-0.02373999844,-0.00400,
-0.02372999844,0.00600,
-0.02372000000,0.01400,
-0.02371000000,0.01000,
-0.02369999844,0.00400,
-0.02369000000,0.00600,
-0.02368000000,0.02400,
-0.02366999844,0.01600,
-0.02365999844,-0.00200,
-0.02365000000,0.01400,
-0.02364000000,0.02000,
-0.02362999844,-0.00400,
-0.02362000000,0.03000,
-0.02361000000,0.01200,
-0.02359999844,-0.00200,
-0.02358999844,0.00400,
-0.02358000000,0.02600,
-0.02357000000,0.00600,
-0.02355999844,0.00600,
-0.02355000000,0.01200,
-0.02354000000,0.02200,
-0.02352999844,-0.00400,
-0.02352000000,0.00800,
-0.02351000000,0.02400,
-0.02349999844,-0.00800,
-0.02348999844,0.01200,
-0.02348000000,0.01600,
-0.02347000000,0.00,
-0.02345999844,0.00,
-0.02345000000,0.02400,
-0.02344000000,0.01600,
-0.02342999844,0.00,
-0.02341999844,-0.00200,
-0.02341000000,0.01800,
-0.02340000000,0.00600,
-0.02338999844,0.00,
-0.02338000000,0.02000,
-0.02337000000,-0.01200,
-0.02335999844,-0.01000,
-0.02334999844,0.01600,
-0.02334000000,0.01400,
-0.02333000000,-0.00400,
-0.02331999844,0.00400,
-0.02331000000,0.01400,
-0.02330000000,0.01600,
-0.02328999844,-0.01600,
-0.02328000000,0.01000,
-0.02327000000,0.01400,
-0.02326000000,-0.00800,
-0.02324999844,0.01000,
-0.02324000000,0.02000,
-0.02323000000,-0.01200,
-0.02321999844,0.00200,
-0.02321000000,0.01800,
-0.02320000000,0.00,
-0.02318999844,-0.01200,
-0.02317999844,0.00600,
-0.02317000000,0.03200,
-0.02316000000,-0.01000,
-0.02314999844,-0.00200,
-0.02314000000,0.01600,
-0.02313000000,0.00400,
-0.02311999844,-0.00200,
-0.02310999844,0.03200,
-0.02310000000,0.00800,
-0.02309000000,-0.01000,
-0.02307999844,0.01000,
-0.02307000000,0.02200,
-0.02306000000,-0.01000,
-0.02304999844,-0.00600,
-0.02304000000,0.03800,
-0.02303000000,0.00600,
-0.02302000000,-0.01200,
-0.02300999844,0.01600,
-0.02300000000,0.02400,
-0.02299000000,-0.01600,
-0.02297999844,0.02000,
-0.02297000000,0.02600,
-0.02296000000,-0.01000,
-0.02294999844,0.00,
-0.02293999844,0.03000,
-0.02293000000,0.00600,
-0.02292000000,-0.01200,
-0.02290999844,0.01400,
-0.02290000000,0.02400,
-0.02289000000,-0.00800,
-0.02287999844,0.00800,
-0.02286999844,0.02800,
-0.02286000000,-0.01400,
-0.02285000000,-0.00400,
-0.02283999844,0.02600,
-0.02283000000,0.01000,
-0.02282000000,-0.00400,
-0.02280999844,0.02000,
-0.02279999844,0.03200,
-0.02279000000,-0.01800,
-0.02278000000,0.00,
-0.02276999844,0.02400,
-0.02276000000,0.00600,
-0.02275000000,-0.00200,
-0.02273999844,0.02400,
-0.02273000000,0.02000,
-0.02272000000,-0.01600,
-0.02271000000,0.01600,
-0.02269999844,0.01800,
-0.02269000000,-0.00400,
-0.02268000000,0.01200,
-0.02266999844,0.02800,
-0.02266000000,0.00600,
-0.02265000000,0.00,
-0.02263999844,0.01600,
-0.02262999844,0.01400,
-0.02262000000,0.00,
-0.02261000000,0.01800,
-0.02259999844,0.02400,
-0.02259000000,0.00400,
-0.02258000000,0.01000,
-0.02256999844,0.01600,
-0.02255999844,0.00400,
-0.02255000000,-0.00200,
-0.02254000000,0.02200,
-0.02252999844,0.02800,
-0.02252000000,-0.00600,
-0.02251000000,0.00800,
-0.02249999844,0.01800,
-0.02249000000,0.00600,
-0.02248000000,-0.00200,
-0.02247000000,0.02600,
-0.02245999844,0.03000,
-0.02245000000,-0.00600,
-0.02244000000,0.01200,
-0.02242999844,0.02800,
-0.02242000000,-0.00600,
-0.02241000000,0.01200,
-0.02239999844,0.03400,
-0.02238999844,0.00800,
-0.02238000000,0.00400,
-0.02237000000,0.02200,
-0.02235999844,0.01600,
-0.02235000000,0.00600,
-0.02234000000,0.01600,
-0.02232999844,0.02800,
-0.02231999844,0.01000,
-0.02231000000,0.01000,
-0.02230000000,0.02600,
-0.02228999844,0.00600,
-0.02228000000,0.00400,
-0.02227000000,0.02600,
-0.02225999844,0.02000,
-0.02224999844,0.00800,
-0.02224000000,0.01600,
-0.02223000000,0.03000,
-0.02221999844,0.01400,
-0.02221000000,0.00200,
-0.02220000000,0.03000,
-0.02218999844,0.01600,
-0.02218000000,0.00800,
-0.02217000000,0.02200,
-0.02216000000,0.02000,
-0.02214999844,0.00200,
-0.02214000000,0.01800,
-0.02213000000,0.02600,
-0.02211999844,0.01200,
-0.02211000000,0.01200,
-0.02210000000,0.02400,
-0.02208999844,0.02400,
-0.02207999844,0.00600,
-0.02207000000,0.01800,
-0.02206000000,0.02600,
-0.02204999844,0.01000,
-0.02204000000,0.01600,
-0.02203000000,0.03400,
-0.02201999844,0.01600,
-0.02200999844,0.01400,
-0.02200000000,0.02600,
-0.02199000000,0.02200,
-0.02197999844,0.01400,
-0.02197000000,0.01800,
-0.02196000000,0.03400,
-0.02194999844,0.02600,
-0.02194000000,0.01600,
-0.02193000000,0.02600,
-0.02192000000,0.01800,
-0.02190999844,0.01600,
-0.02190000000,0.03400,
-0.02189000000,0.03000,
-0.02187999844,0.01600,
-0.02187000000,0.02400,
-0.02186000000,0.03000,
-0.02184999844,0.02000,
-0.02183999844,0.02400,
-0.02183000000,0.03000,
-0.02182000000,0.03000,
-0.02180999844,0.02400,
-0.02180000000,0.02400,
-0.02179000000,0.03400,
-0.02177999844,0.02000,
-0.02176999844,0.03600,
-0.02176000000,0.03600,
-0.02175000000,0.02600,
-0.02173999844,0.02800,
-0.02173000000,0.03600,
-0.02172000000,0.03600,
-0.02170999844,0.03200,
-0.02169999844,0.02200,
-0.02169000000,0.03600,
-0.02168000000,0.03000,
-0.02166999844,0.02800,
-0.02166000000,0.03600,
-0.02165000000,0.02800,
-0.02163999844,0.02600,
-0.02163000000,0.03600,
-0.02162000000,0.03600,
-0.02161000000,0.02800,
-0.02159999844,0.03400,
-0.02159000000,0.03000,
-0.02158000000,0.03400,
-0.02156999844,0.02600,
-0.02156000000,0.03600,
-0.02155000000,0.03800,
-0.02153999844,0.03000,
-0.02152999844,0.03600,
-0.02152000000,0.03400,
-0.02151000000,0.02800,
-0.02149999844,0.03200,
-0.02149000000,0.03600,
-0.02148000000,0.03400,
-0.02146999844,0.02800,
-0.02145999844,0.03400,
-0.02145000000,0.04000,
-0.02144000000,0.03200,
-0.02142999844,0.03600,
-0.02142000000,0.04000,
-0.02141000000,0.03400,
-0.02139999844,0.03200,
-0.02139000000,0.03800,
-0.02138000000,0.03800,
-0.02137000000,0.03400,
-0.02135999844,0.03800,
-0.02135000000,0.04000,
-0.02134000000,0.03600,
-0.02132999844,0.04000,
-0.02132000000,0.04400,
-0.02131000000,0.04200,
-0.02129999844,0.03400,
-0.02128999844,0.04000,
-0.02128000000,0.04600,
-0.02127000000,0.03200,
-0.02125999844,0.04800,
-0.02125000000,0.04200,
-0.02124000000,0.03600,
-0.02122999844,0.03800,
-0.02121999844,0.04000,
-0.02121000000,0.03800,
-0.02120000000,0.04200,
-0.02118999844,0.04200,
-0.02118000000,0.04600,
-0.02117000000,0.03800,
-0.02115999844,0.04200,
-0.02115000000,0.05000,
-0.02114000000,0.03800,
-0.02113000000,0.04400,
-0.02111999844,0.04000,
-0.02111000000,0.04400,
-0.02110000000,0.04200,
-0.02108999844,0.04800,
-0.02108000000,0.03800,
-0.02107000000,0.04200,
-0.02106000000,0.04000,
-0.02104999844,0.04600,
-0.02104000000,0.04400,
-0.02103000000,0.04000,
-0.02101999844,0.05200,
-0.02101000000,0.04400,
-0.02100000000,0.04000,
-0.02098999844,0.04200,
-0.02097999844,0.04200,
-0.02097000000,0.04400,
-0.02096000000,0.04600,
-0.02094999844,0.04800,
-0.02094000000,0.04400,
-0.02093000000,0.04000,
-0.02091999844,0.04800,
-0.02090999844,0.04800,
-0.02090000000,0.04000,
-0.02089000000,0.04200,
-0.02087999844,0.04800,
-0.02087000000,0.05400,
-0.02086000000,0.04400,
-0.02084999844,0.04800,
-0.02084000000,0.05200,
-0.02083000000,0.04800,
-0.02082000000,0.05600,
-0.02080999844,0.05200,
-0.02080000000,0.05000,
-0.02079000000,0.04800,
-0.02077999844,0.05000,
-0.02077000000,0.04800,
-0.02076000000,0.04600,
-0.02074999844,0.05400,
-0.02073999844,0.06200,
-0.02073000000,0.05600,
-0.02072000000,0.05200,
-0.02070999844,0.05800,
-0.02070000000,0.05200,
-0.02069000000,0.06400,
-0.02067999844,0.06600,
-0.02066999844,0.05800,
-0.02066000000,0.05400,
-0.02065000000,0.05800,
-0.02063999844,0.07000,
-0.02063000000,0.05400,
-0.02062000000,0.05600,
-0.02060999844,0.06600,
-0.02060000000,0.07200,
-0.02059000000,0.06200,
-0.02058000000,0.06600,
-0.02056999844,0.06000,
-0.02056000000,0.06600,
-0.02055000000,0.06800,
-0.02053999844,0.07200,
-0.02053000000,0.06600,
-0.02052000000,0.06600,
-0.02051000000,0.08600,
-0.02049999844,0.07000,
-0.02049000000,0.07000,
-0.02048000000,0.07000,
-0.02046999844,0.08200,
-0.02046000000,0.07800,
-0.02045000000,0.08200,
-0.02043999844,0.08200,
-0.02042999844,0.07200,
-0.02042000000,0.07400,
-0.02041000000,0.08800,
-0.02039999844,0.08200,
-0.02039000000,0.07800,
-0.02038000000,0.09000,
-0.02036999844,0.08600,
-0.02035999844,0.08800,
-0.02035000000,0.07800,
-0.02034000000,0.09200,
-0.02032999844,0.09200,
-0.02032000000,0.09400,
-0.02031000000,0.09600,
-0.02029999844,0.08200,
-0.02029000000,0.08400,
-0.02028000000,0.09000,
-0.02027000000,0.09000,
-0.02025999844,0.07600,
-0.02025000000,0.08400,
-0.02024000000,0.09400,
-0.02022999844,0.10000,
-0.02022000000,0.08400,
-0.02021000000,0.08000,
-0.02019999844,0.08800,
-0.02018999844,0.07600,
-0.02018000000,0.09400,
-0.02017000000,0.09000,
-0.02015999844,0.08200,
-0.02015000000,0.08600,
-0.02014000000,0.09200,
-0.02012999844,0.09400,
-0.02011999844,0.08400,
-0.02011000000,0.09000,
-0.02010000000,0.10000,
-0.02008999844,0.09600,
-0.02008000000,0.08600,
-0.02007000000,0.08600,
-0.02005999844,0.07400,
-0.02005000000,0.09200,
-0.02004000000,0.09800,
-0.02003000000,0.09400,
-0.02001999844,0.08600,
-0.02001000000,0.09000,
-0.02000000000,0.10600,
-0.01998999844,0.09000,
-0.01998000000,0.08200,
-0.01997000000,0.09200,
-0.01996000000,0.10200,
-0.01994999844,0.08800,
-0.01994000000,0.09000,
-0.01993000000,0.08600,
-0.01991999844,0.08400,
-0.01991000000,0.09200,
-0.01990000000,0.09600,
-0.01988999844,0.08600,
-0.01987999844,0.08400,
-0.01987000000,0.09400,
-0.01986000000,0.08400,
-0.01984999844,0.08000,
-0.01984000000,0.07200,
-0.01983000000,0.08400,
-0.01981999844,0.07600,
-0.01980999844,0.08400,
-0.01980000000,0.08600,
-0.01979000000,0.07000,
-0.01977999844,0.07400,
-0.01977000000,0.09200,
-0.01976000000,0.09400,
-0.01974999844,0.09000,
-0.01974000000,0.10400,
-0.01973000000,0.11600,
-0.01972000000,0.13000,
-0.01970999844,0.11200,
-0.01970000000,0.12800,
-0.01969000000,0.14000,
-0.01967999844,0.13600,
-0.01967000000,0.15800,
-0.01966000000,0.15000,
-0.01964999844,0.14600,
-0.01963999844,0.16000,
-0.01963000000,0.17000,
-0.01962000000,0.15600,
-0.01960999844,0.15200,
-0.01960000000,0.16200,
-0.01959000000,0.17200,
-0.01957999844,0.15200,
-0.01956999844,0.14200,
-0.01956000000,0.15000,
-0.01955000000,0.12800,
-0.01953999844,0.15000,
-0.01953000000,0.15000,
-0.01952000000,0.13200,
-0.01950999844,0.13400,
-0.01950000000,0.13800,
-0.01949000000,0.14000,
-0.01948000000,0.12000,
-0.01946999844,0.11800,
-0.01946000000,0.12600,
-0.01945000000,0.13000,
-0.01943999844,0.12200,
-0.01943000000,0.12200,
-0.01942000000,0.11000,
-0.01941000000,0.12400,
-0.01939999844,0.13600,
-0.01939000000,0.13000,
-0.01938000000,0.12000,
-0.01936999844,0.12600,
-0.01936000000,0.14200,
-0.01935000000,0.12600,
-0.01933999844,0.12000,
-0.01932999844,0.12600,
-0.01932000000,0.14400,
-0.01931000000,0.13400,
-0.01929999844,0.14200,
-0.01929000000,0.14000,
-0.01928000000,0.13600,
-0.01926999844,0.14600,
-0.01926000000,0.15200,
-0.01925000000,0.15000,
-0.01924000000,0.14600,
-0.01922999844,0.15800,
-0.01922000000,0.15200,
-0.01921000000,0.16000,
-0.01919999844,0.14400,
-0.01919000000,0.15600,
-0.01918000000,0.17000,
-0.01917000000,0.16800,
-0.01915999844,0.17800,
-0.01915000000,0.16200,
-0.01914000000,0.16400,
-0.01912999844,0.17600,
-0.01912000000,0.18000,
-0.01911000000,0.17000,
-0.01910000000,0.17200,
-0.01908999844,0.18400,
-0.01908000000,0.20200,
-0.01907000000,0.17800,
-0.01905999844,0.17800,
-0.01905000000,0.19200,
-0.01904000000,0.18600,
-0.01902999844,0.20400,
-0.01901999844,0.19800,
-0.01901000000,0.19000,
-0.01900000000,0.18600,
-0.01898999844,0.19600,
-0.01898000000,0.19600,
-0.01897000000,0.18600,
-0.01895999844,0.19200,
-0.01895000000,0.20400,
-0.01894000000,0.20000,
-0.01893000000,0.18400,
-0.01891999844,0.19800,
-0.01891000000,0.18600,
-0.01890000000,0.20000,
-0.01888999844,0.20200,
-0.01888000000,0.19600,
-0.01887000000,0.18800,
-0.01886000000,0.19200,
-0.01884999844,0.21200,
-0.01884000000,0.18800,
-0.01883000000,0.18200,
-0.01881999844,0.19200,
-0.01881000000,0.20400,
-0.01880000000,0.19600,
-0.01878999844,0.19600,
-0.01877999844,0.19000,
-0.01877000000,0.19200,
-0.01876000000,0.19200,
-0.01874999844,0.20200,
-0.01874000000,0.19000,
-0.01873000000,0.19000,
-0.01871999844,0.20200,
-0.01871000000,0.19600,
-0.01870000000,0.19000,
-0.01869000000,0.18800,
-0.01867999844,0.20200,
-0.01867000000,0.20200,
-0.01866000000,0.19600,
-0.01864999844,0.19400,
-0.01864000000,0.19000,
-0.01863000000,0.18800,
-0.01862000000,0.19400,
-0.01860999844,0.19800,
-0.01860000000,0.18600,
-0.01859000000,0.19200,
-0.01857999844,0.19800,
-0.01857000000,0.20000,
-0.01856000000,0.19000,
-0.01855000000,0.19200,
-0.01853999844,0.20000,
-0.01853000000,0.19000,
-0.01852000000,0.19800,
-0.01850999844,0.19200,
-0.01850000000,0.18400,
-0.01849000000,0.18800,
-0.01847999844,0.19200,
-0.01846999844,0.18600,
-0.01846000000,0.18000,
-0.01845000000,0.18800,
-0.01843999844,0.19600,
-0.01843000000,0.18400,
-0.01842000000,0.18000,
-0.01840999844,0.18600,
-0.01840000000,0.18200,
-0.01839000000,0.18400,
-0.01838000000,0.18800,
-0.01836999844,0.18200,
-0.01836000000,0.17400,
-0.01835000000,0.18400,
-0.01833999844,0.19200,
-0.01833000000,0.17400,
-0.01832000000,0.18400,
-0.01831000000,0.32000,
-0.01829999844,0.19800,
-0.01829000000,0.32000,
-0.01828000000,0.08800,
-0.01826999844,0.20600,
-0.01826000000,0.12800,
-0.01825000000,0.13400,
-0.01823999844,0.15600,
-0.01822999844,0.13200,
-0.01822000000,0.14200,
-0.01821000000,0.15600,
-0.01819999844,0.14000,
-0.01819000000,0.14000,
-0.01818000000,0.14000,
-0.01816999844,0.14200,
-0.01816000000,0.13600,
-0.01815000000,0.13800,
-0.01814000000,0.13200,
-0.01812999844,0.13000,
-0.01812000000,0.12000,
-0.01811000000,0.13400,
-0.01809999844,0.13400,
-0.01809000000,0.12400,
-0.01808000000,0.13800,
-0.01807000000,0.13200,
-0.01805999844,0.12200,
-0.01805000000,0.12600,
-0.01804000000,0.13400,
-0.01802999844,0.13000,
-0.01802000000,0.12400,
-0.01801000000,0.12600,
-0.01800000000,0.13200,
-0.01798999844,0.12400,
-0.01798000000,0.13000,
-0.01797000000,0.13800,
-0.01795999844,0.12800,
-0.01795000000,0.13200,
-0.01794000000,0.13800,
-0.01792999844,0.13800,
-0.01792000000,0.12600,
-0.01791000000,0.13600,
-0.01790000000,0.13200,
-0.01788999844,0.12400,
-0.01788000000,0.13000,
-0.01787000000,0.14200,
-0.01785999844,0.13800,
-0.01785000000,0.13000,
-0.01784000000,0.14200,
-0.01783000000,0.13600,
-0.01781999844,0.12800,
-0.01781000000,0.14800,
-0.01780000000,0.14200,
-0.01778999844,0.13000,
-0.01778000000,0.13400,
-0.01777000000,0.14000,
-0.01776000000,0.13600,
-0.01774999844,0.13200,
-0.01774000000,0.14000,
-0.01773000000,0.14200,
-0.01771999844,0.10600,
-0.01771000000,0.08600,
-0.01770000000,0.08800,
-0.01768999844,0.06400,
-0.01767999844,0.06800,
-0.01767000000,0.07000,
-0.01766000000,0.05800,
-0.01764999844,0.05800,
-0.01764000000,0.06800,
-0.01763000000,0.07400,
-0.01761999844,0.06200,
-0.01761000000,0.05800,
-0.01760000000,0.08000,
-0.01759000000,0.07200,
-0.01757999844,0.07200,
-0.01757000000,0.08600,
-0.01756000000,0.08000,
-0.01754999844,0.07400,
-0.01754000000,0.09400,
-0.01753000000,0.10000,
-0.01752000000,0.09600,
-0.01750999844,0.10600,
-0.01750000000,0.11800,
-0.01749000000,0.11600,
-0.01747999844,0.10400,
-0.01747000000,0.12800,
-0.01746000000,0.13800,
-0.01745000000,0.12400,
-0.01743999844,0.13800,
-0.01743000000,0.14000,
-0.01742000000,0.12800,
-0.01740999844,0.14200,
-0.01740000000,0.15600,
-0.01739000000,0.15200,
-0.01737999844,0.14200,
-0.01737000000,0.15800,
-0.01736000000,0.16600,
-0.01735000000,0.15000,
-0.01733999844,0.15600,
-0.01733000000,0.17000,
-0.01732000000,0.15800,
-0.01730999844,0.15800,
-0.01730000000,0.18200,
-0.01729000000,0.16800,
-0.01728000000,0.15600,
-0.01726999844,0.17600,
-0.01726000000,0.17600,
-0.01725000000,0.16400,
-0.01723999844,0.16200,
-0.01723000000,0.19200,
-0.01722000000,0.17800,
-0.01721000000,0.16000,
-0.01719999844,0.17000,
-0.01719000000,0.17200,
-0.01718000000,0.15000,
-0.01716999844,0.17200,
-0.01716000000,0.17600,
-0.01715000000,0.14400,
-0.01713999844,0.14400,
-0.01712999844,0.15200,
-0.01712000000,0.13400,
-0.01711000000,0.11800,
-0.01709999844,0.12800,
-0.01709000000,0.13600,
-0.01708000000,0.10600,
-0.01706999844,0.10400,
-0.01706000000,0.11600,
-0.01705000000,0.09400,
-0.01704000000,0.09600,
-0.01702999844,0.11800,
-0.01702000000,0.11800,
-0.01701000000,0.11600,
-0.01699999844,0.13800,
-0.01699000000,0.15400,
-0.01698000000,0.14600,
-0.01697000000,0.15200,
-0.01695999844,0.18800,
-0.01695000000,0.19000,
-0.01694000000,0.19000,
-0.01692999844,0.21400,
-0.01692000000,0.22200,
-0.01691000000,0.19800,
-0.01690000000,0.22000,
-0.01688999844,0.23600,
-0.01688000000,0.22200,
-0.01687000000,0.21400,
-0.01685999844,0.23400,
-0.01685000000,0.21800,
-0.01684000000,0.18600,
-0.01682999844,0.20600,
-0.01682000000,0.20400,
-0.01681000000,0.18600,
-0.01680000000,0.19000,
-0.01678999844,0.20400,
-0.01678000000,0.18000,
-0.01677000000,0.16400,
-0.01675999844,0.18200,
-0.01675000000,0.17200,
-0.01674000000,0.15200,
-0.01673000000,0.16600,
-0.01671999844,0.17400,
-0.01671000000,0.14400,
-0.01670000000,0.14000,
-0.01668999844,0.15000,
-0.01668000000,0.14000,
-0.01667000000,0.13200,
-0.01666000000,0.15200,
-0.01664999844,0.16200,
-0.01664000000,0.13800,
-0.01663000000,0.14600,
-0.01661999844,0.16000,
-0.01661000000,0.15000,
-0.01660000000,0.15000,
-0.01658999844,0.17600,
-0.01657999844,0.16200,
-0.01657000000,0.15600,
-0.01656000000,0.16800,
-0.01654999844,0.18400,
-0.01654000000,0.16400,
-0.01653000000,0.17600,
-0.01651999844,0.20200,
-0.01651000000,0.19000,
-0.01650000000,0.18000,
-0.01649000000,0.19600,
-0.01647999844,0.19600,
-0.01647000000,0.17400,
-0.01646000000,0.19200,
-0.01644999844,0.20400,
-0.01644000000,0.18600,
-0.01643000000,0.19000,
-0.01642000000,0.21000,
-0.01640999844,0.20600,
-0.01640000000,0.18200,
-0.01639000000,0.19600,
-0.01637999844,0.20800,
-0.01637000000,0.19200,
-0.01636000000,0.19600,
-0.01635000000,0.20600,
-0.01633999844,0.18400,
-0.01633000000,0.18400,
-0.01632000000,0.21000,
-0.01630999844,0.20600,
-0.01630000000,0.19200,
-0.01629000000,0.20400,
-0.01627999844,0.21600,
-0.01627000000,0.19400,
-0.01626000000,0.18800,
-0.01625000000,0.21200,
-0.01623999844,0.20600,
-0.01623000000,0.19000,
-0.01622000000,0.21400,
-0.01620999844,0.20600,
-0.01620000000,0.19000,
-0.01619000000,0.20600,
-0.01618000000,0.21200,
-0.01616999844,0.19600,
-0.01616000000,0.19200,
-0.01615000000,0.20800,
-0.01613999844,0.22200,
-0.01613000000,0.19200,
-0.01612000000,0.20600,
-0.01611000000,0.20800,
-0.01609999844,0.19400,
-0.01609000000,0.20800,
-0.01608000000,0.22600,
-0.01606999844,0.20000,
-0.01606000000,0.20000,
-0.01605000000,0.21200,
-0.01603999844,0.21000,
-0.01603000000,0.20200,
-0.01602000000,0.20400,
-0.01601000000,0.22800,
-0.01599999844,0.20800,
-0.01599000000,0.20000,
-0.01598000000,0.21600,
-0.01596999844,0.20800,
-0.01596000000,0.20800,
-0.01595000000,0.22000,
-0.01594000000,0.21400,
-0.01592999844,0.20000,
-0.01592000000,0.20800,
-0.01591000000,0.22600,
-0.01589999844,0.20600,
-0.01589000000,0.19800,
-0.01588000000,0.20800,
-0.01587000000,0.20600,
-0.01585999844,0.19400,
-0.01585000000,0.20200,
-0.01584000000,0.20600,
-0.01582999844,0.18800,
-0.01582000000,0.19000,
-0.01581000000,0.20000,
-0.01580000000,0.19400,
-0.01578999844,0.18800,
-0.01578000000,0.19800,
-0.01577000000,0.19400,
-0.01575999844,0.18000,
-0.01575000000,0.17800,
-0.01574000000,0.19400,
-0.01572999844,0.18200,
-0.01572000000,0.17400,
-0.01571000000,0.18400,
-0.01570000000,0.16800,
-0.01568999844,0.16600,
-0.01568000000,0.17200,
-0.01567000000,0.17200,
-0.01565999844,0.15800,
-0.01565000000,0.16200,
-0.01564000000,0.15800,
-0.01563000000,0.15600,
-0.01562000000,0.14400,
-0.01560999875,0.15200,
-0.01560000000,0.15000,
-0.01559000000,0.13800,
-0.01558000000,0.15200,
-0.01557000000,0.14400,
-0.01555999875,0.14200,
-0.01555000000,0.14200,
-0.01554000000,0.14200,
-0.01553000000,0.13600,
-0.01552000000,0.13600,
-0.01550999875,0.13400,
-0.01550000000,0.14000,
-0.01548999875,0.12600,
-0.01548000000,0.12600,
-0.01547000000,0.13400,
-0.01546000000,0.12800,
-0.01545000000,0.12600,
-0.01543999875,0.13200,
-0.01543000000,0.13200,
-0.01542000000,0.12000,
-0.01541000000,0.11600,
-0.01540000000,0.12000,
-0.01538999875,0.11600,
-0.01538000000,0.11400,
-0.01536999875,0.11600,
-0.01536000000,0.11600,
-0.01535000000,0.11000,
-0.01534000000,0.11600,
-0.01533000000,0.11400,
-0.01531999875,0.11200,
-0.01531000000,0.10800,
-0.01529999875,0.11000,
-0.01529000000,0.10800,
-0.01528000000,0.10200,
-0.01527000000,0.10400,
-0.01526000000,0.09600,
-0.01524999875,0.09400,
-0.01524000000,0.09800,
-0.01523000000,0.09600,
-0.01522000000,0.09000,
-0.01521000000,0.09400,
-0.01519999875,0.09800,
-0.01519000000,0.09200,
-0.01517999875,0.08400,
-0.01517000000,0.09200,
-0.01516000000,0.09000,
-0.01515000000,0.08400,
-0.01514000000,0.09000,
-0.01512999875,0.08400,
-0.01512000000,0.07800,
-0.01511000000,0.07800,
-0.01510000000,0.08800,
-0.01509000000,0.08200,
-0.01507999875,0.07600,
-0.01507000000,0.09000,
-0.01505999875,0.08600,
-0.01505000000,0.08600,
-0.01504000000,0.08200,
-0.01503000000,0.09000,
-0.01502000000,0.08400,
-0.01500999875,0.09000,
-0.01500000000,0.08600,
-0.01499000000,0.08800,
-0.01498000000,0.08200,
-0.01497000000,0.08600,
-0.01495999875,0.08800,
-0.01495000000,0.11800,
-0.01493999875,0.16200,
-0.01493000000,0.10400,
-0.01492000000,0.09600,
-0.01491000000,0.10200,
-0.01490000000,0.10000,
-0.01488999875,0.09000,
-0.01488000000,0.08600,
-0.01487000000,0.18200,
-0.01486000000,0.18600,
-0.01485000000,0.18200,
-0.01484000000,0.18000,
-0.01483000000,0.16600,
-0.01481999875,0.14400,
-0.01481000000,0.13200,
-0.01480000000,0.12800,
-0.01479000000,0.14400,
-0.01478000000,0.14200,
-0.01476999875,0.13400,
-0.01476000000,0.14400,
-0.01475000000,0.12200,
-0.01474000000,0.13600,
-0.01473000000,0.14000,
-0.01472000000,0.13800,
-0.01471000000,0.13200,
-0.01469999875,0.13600,
-0.01469000000,0.15000,
-0.01468000000,0.13200,
-0.01467000000,0.12400,
-0.01466000000,0.13200,
-0.01464999875,0.14200,
-0.01464000000,0.14000,
-0.01462999875,0.14800,
-0.01462000000,0.13400,
-0.01461000000,0.12200,
-0.01460000000,0.13800,
-0.01459000000,0.14600,
-0.01457999875,0.13600,
-0.01457000000,0.12000,
-0.01456000000,0.14400,
-0.01455000000,0.14200,
-0.01454000000,0.13200,
-0.01452999875,0.12600,
-0.01452000000,0.14000,
-0.01450999875,0.13400,
-0.01450000000,0.14400,
-0.01449000000,0.14200,
-0.01448000000,0.12800,
-0.01447000000,0.12800,
-0.01445999875,0.13800,
-0.01445000000,0.14000,
-0.01444000000,0.12000,
-0.01443000000,0.13200,
-0.01442000000,0.14400,
-0.01440999875,0.14200,
-0.01440000000,0.12200,
-0.01438999875,0.12600,
-0.01438000000,0.12600,
-0.01437000000,0.11800,
-0.01436000000,0.14000,
-0.01435000000,0.13800,
-0.01433999875,0.11200,
-0.01433000000,0.12400,
-0.01432000000,0.12600,
-0.01431000000,0.11800,
-0.01430000000,0.11200,
-0.01429000000,0.11000,
-0.01428000000,0.13200,
-0.01426999875,0.11800,
-0.01426000000,0.11400,
-0.01425000000,0.11800,
-0.01424000000,0.10600,
-0.01423000000,0.12800,
-0.01421999875,0.13800,
-0.01421000000,0.12200,
-0.01420000000,0.11800,
-0.01419000000,0.13400,
-0.01418000000,0.13200,
-0.01417000000,0.11800,
-0.01416000000,0.11200,
-0.01414999875,0.13000,
-0.01414000000,0.13400,
-0.01413000000,0.12600,
-0.01412000000,0.14400,
-0.01411000000,0.11200,
-0.01409999875,0.11800,
-0.01409000000,0.12600,
-0.01408000000,0.12600,
-0.01407000000,0.12000,
-0.01406000000,0.11800,
-0.01405000000,0.12600,
-0.01404000000,0.12200,
-0.01402999875,0.11400,
-0.01402000000,0.11000,
-0.01401000000,0.12600,
-0.01400000000,0.12400,
-0.01399000000,0.14000,
-0.01397999875,0.12000,
-0.01397000000,0.10800,
-0.01395999875,0.11600,
-0.01395000000,0.12600,
-0.01394000000,0.11800,
-0.01393000000,0.10600,
-0.01392000000,0.12600,
-0.01390999875,0.13400,
-0.01390000000,0.13200,
-0.01389000000,0.11000,
-0.01388000000,0.11600,
-0.01387000000,0.12000,
-0.01385999875,0.11600,
-0.01385000000,0.13000,
-0.01383999875,0.12200,
-0.01383000000,0.11000,
-0.01382000000,0.12000,
-0.01381000000,0.11600,
-0.01380000000,0.11200,
-0.01378999875,0.11200,
-0.01378000000,0.11800,
-0.01377000000,0.13800,
-0.01376000000,0.11200,
-0.01375000000,0.10800,
-0.01374000000,0.11000,
-0.01373000000,0.10400,
-0.01371999875,0.12800,
-0.01371000000,0.12800,
-0.01370000000,0.11600,
-0.01369000000,0.11000,
-0.01368000000,0.12200,
-0.01366999875,0.12800,
-0.01366000000,0.10600,
-0.01365000000,0.10000,
-0.01364000000,0.12400,
-0.01363000000,0.12400,
-0.01362000000,0.10600,
-0.01361000000,0.12000,
-0.01359999875,0.10200,
-0.01359000000,0.11600,
-0.01358000000,0.12400,
-0.01357000000,0.11600,
-0.01356000000,0.11400,
-0.01354999875,0.11800,
-0.01354000000,0.12400,
-0.01353000000,0.10800,
-0.01352000000,0.10600,
-0.01351000000,0.11200,
-0.01350000000,0.12200,
-0.01349000000,0.11400,
-0.01347999875,0.13000,
-0.01347000000,0.10800,
-0.01346000000,0.10400,
-0.01345000000,0.11200,
-0.01344000000,0.12200,
-0.01342999875,0.11200,
-0.01342000000,0.10400,
-0.01340999875,0.12400,
-0.01340000000,0.12200,
-0.01339000000,0.11800,
-0.01338000000,0.10200,
-0.01337000000,0.11800,
-0.01335999875,0.11800,
-0.01335000000,0.12000,
-0.01334000000,0.11800,
-0.01333000000,0.10800,
-0.01332000000,0.11000,
-0.01330999875,0.11800,
-0.01330000000,0.11200,
-0.01328999875,0.10200,
-0.01328000000,0.11200,
-0.01327000000,0.11800,
-0.01326000000,0.12800,
-0.01325000000,0.10400,
-0.01323999875,0.10400,
-0.01323000000,0.11000,
-0.01322000000,0.11000,
-0.01321000000,0.12000,
-0.01320000000,0.12400,
-0.01319000000,0.11000,
-0.01318000000,0.10600,
-0.01316999875,0.11400,
-0.01316000000,0.11200,
-0.01315000000,0.10600,
-0.01314000000,0.10400,
-0.01313000000,0.12600,
-0.01311999875,0.11400,
-0.01311000000,0.10200,
-0.01310000000,0.10800,
-0.01309000000,0.09800,
-0.01308000000,0.11800,
-0.01307000000,0.12200,
-0.01306000000,0.11400,
-0.01304999875,0.10600,
-0.01304000000,0.11600,
-0.01303000000,0.12600,
-0.01302000000,0.11000,
-0.01301000000,0.10200,
-0.01299999875,0.11400,
-0.01299000000,0.11800,
-0.01298000000,0.10600,
-0.01297000000,0.11600,
-0.01296000000,0.10800,
-0.01295000000,0.10600,
-0.01294000000,0.10800,
-0.01292999875,0.12000,
-0.01292000000,0.11400,
-0.01291000000,0.10400,
-0.01290000000,0.12400,
-0.01289000000,0.12600,
-0.01287999875,0.10200,
-0.01287000000,0.10400,
-0.01286000000,0.12000,
-0.01285000000,0.11000,
-0.01284000000,0.12000,
-0.01283000000,0.11000,
-0.01282000000,0.10400,
-0.01280999875,0.10200,
-0.01280000000,0.12000,
-0.01279000000,0.11800,
-0.01278000000,0.09600,
-0.01277000000,0.11800,
-0.01275999875,0.11200,
-0.01275000000,0.11000,
-0.01273999875,0.10400,
-0.01273000000,0.11400,
-0.01272000000,0.10800,
-0.01271000000,0.11800,
-0.01270000000,0.11400,
-0.01268999875,0.11800,
-0.01268000000,0.10200,
-0.01267000000,0.11200,
-0.01266000000,0.12200,
-0.01265000000,0.10000,
-0.01264000000,0.10400,
-0.01263000000,0.11400,
-0.01261999875,0.11800,
-0.01261000000,0.10600,
-0.01260000000,0.11000,
-0.01259000000,0.11200,
-0.01258000000,0.10600,
-0.01256999875,0.12000,
-0.01256000000,0.12400,
-0.01255000000,0.10800,
-0.01254000000,0.10400,
-0.01253000000,0.12000,
-0.01252000000,0.11600,
-0.01251000000,0.10400,
-0.01249999875,0.11800,
-0.01249000000,0.11600,
-0.01248000000,0.10600,
-0.01247000000,0.11200,
-0.01246000000,0.11800,
-0.01244999875,0.10600,
-0.01244000000,0.11000,
-0.01243000000,0.11200,
-0.01242000000,0.11600,
-0.01241000000,0.10600,
-0.01240000000,0.11600,
-0.01239000000,0.12000,
-0.01237999875,0.10400,
-0.01237000000,0.10200,
-0.01236000000,0.11200,
-0.01235000000,0.11200,
-0.01234000000,0.10600,
-0.01232999875,0.11000,
-0.01232000000,0.10800,
-0.01231000000,0.09800,
-0.01230000000,0.10000,
-0.01229000000,0.11600,
-0.01228000000,0.11000,
-0.01227000000,0.09600,
-0.01225999875,0.11800,
-0.01225000000,0.10200,
-0.01224000000,0.09600,
-0.01223000000,0.11200,
-0.01222000000,0.10800,
-0.01221000000,0.10000,
-0.01220000000,0.10000,
-0.01219000000,0.10800,
-0.01218000000,0.10800,
-0.01217000000,0.09600,
-0.01216000000,0.11000,
-0.01215000000,0.10600,
-0.01213999875,0.08800,
-0.01213000000,0.10600,
-0.01212000000,0.11200,
-0.01211000000,0.10000,
-0.01210000000,0.10200,
-0.01209000000,0.11200,
-0.01208000000,0.10000,
-0.01206999875,0.10000,
-0.01206000000,0.10600,
-0.01205000000,0.11600,
-0.01204000000,0.09800,
-0.01203000000,0.09600,
-0.01201999875,0.11600,
-0.01201000000,0.09800,
-0.01200000000,0.10400,
-0.01199000000,0.12600,
-0.01198000000,0.10200,
-0.01197000000,0.09600,
-0.01196000000,0.11000,
-0.01194999875,0.11600,
-0.01194000000,0.10400,
-0.01193000000,0.10200,
-0.01192000000,0.11600,
-0.01191000000,0.10400,
-0.01189999875,0.09800,
-0.01189000000,0.11800,
-0.01188000000,0.11200,
-0.01187000000,0.09400,
-0.01186000000,0.11400,
-0.01185000000,0.11000,
-0.01184000000,0.09600,
-0.01182999875,0.10600,
-0.01182000000,0.12000,
-0.01181000000,0.10600,
-0.01180000000,0.09600,
-0.01179000000,0.10000,
-0.01177999875,0.11600,
-0.01177000000,0.10000,
-0.01176000000,0.10600,
-0.01175000000,0.11400,
-0.01174000000,0.08400,
-0.01173000000,0.09200,
-0.01172000000,0.11800,
-0.01170999875,0.10200,
-0.01170000000,0.09800,
-0.01169000000,0.10800,
-0.01168000000,0.10600,
-0.01167000000,0.09800,
-0.01166000000,0.09400,
-0.01165000000,0.11000,
-0.01164000000,0.10200,
-0.01163000000,0.09200,
-0.01162000000,0.11600,
-0.01161000000,0.09800,
-0.01160000000,0.09200,
-0.01158999875,0.11200,
-0.01158000000,0.11000,
-0.01157000000,0.09800,
-0.01156000000,0.09800,
-0.01155000000,0.10000,
-0.01154000000,0.11600,
-0.01153000000,0.10000,
-0.01152000000,0.10600,
-0.01151000000,0.11200,
-0.01150000000,0.10000,
-0.01149000000,0.11600,
-0.01148000000,0.12200,
