Source,CH3,,
Second,Volt,,
-0.12248,-0.022,,0.24574
-0.12246,0.018,,12287
-0.12244,0.002,,50000
-0.12242,-0.012,,
-0.122399988,0.012,,
-0.12238,-0.016,,
-0.12236,0.022,,
-0.122339988,-0.008,,
-0.12232,0.004,,
-0.1223,0.028,,
-0.12228,-0.002,,
-0.12226,0.012,,
-0.12224,0.008,,
-0.12222,0.014,,
-0.1222,0.006,,
-0.12218,-0.01,,
-0.12216,0.016,,
-0.12214,-0.004,,
-0.12212,0,,
-0.1221,0.002,,
-0.12208,-0.004,,
-0.122059988,0.026,,
-0.12204,-0.002,,
-0.12202,0.008,,
-0.122,0.008,,
-0.12198,-0.008,,
-0.12196,0.014,,
-0.12194,-0.004,,
-0.12192,0.004,,
-0.1219,-0.004,,
-0.12188,0.006,,
-0.12186,0.006,,
-0.12184,-0.012,,
-0.12182,0.008,,
-0.1218,0.006,,
-0.12178,0.014,,
-0.12176,0.004,,
-0.12174,0,,
-0.121719988,0.008,,
-0.1217,0.002,,
-0.12168,0.002,,
-0.12166,0.008,,
-0.12164,0.004,,
-0.12162,0.008,,
-0.1216,0.014,,
-0.12158,0.004,,
-0.12156,0.01,,
-0.12154,-0.012,,
-0.12152,0.01,,
-0.1215,-0.002,,
-0.12148,-0.014,,
-0.12146,0.008,,
-0.121439988,-0.002,,
-0.12142,0.02,,
-0.1214,0,,
-0.12138,0.016,,
-0.12136,0.016,,
-0.12134,-0.01,,
-0.12132,0.014,,
-0.1213,-0.004,,
-0.12128,0.014,,
-0.12126,-0.012,,
-0.12124,0.006,,
-0.12122,0.016,,
-0.1212,-0.008,,
-0.12118,-0.002,,
-0.12116,0.002,,
-0.12114,0.026,,
-0.12112,-0.004,,
-0.121099988,-0.002,,
-0.12108,0.01,,
-0.12106,-0.002,,
-0.12104,0.012,,
-0.12102,-0.004,,
-0.121,0.01,,
-0.12098,0.004,,
-0.12096,0.008,,
-0.12094,0.008,,
-0.12092,0.01,,
-0.1209,-0.012,,
-0.12088,0.008,,
-0.12086,-0.002,,
-0.12084,-0.014,,
-0.120819988,0.006,,
-0.1208,0,,
-0.12078,0.02,,
-0.12076,0,,
-0.12074,0.02,,
-0.12072,0.024,,
-0.1207,-0.008,,
-0.12068,0.01,,
-0.12066,-0.002,,
-0.12064,0.016,,
-0.12062,0,,
-0.1206,0.002,,
-0.12058,0.01,,
-0.12056,-0.006,,
-0.12054,0.006,,
-0.12052,0.002,,
-0.1205,0.026,,
-0.120479988,-0.004,,
-0.12046,-0.006,,
-0.12044,0.014,,
-0.12042,0.002,,
-0.1204,0.01,,
-0.12038,-0.006,,
-0.12036,0.006,,
-0.12034,0.004,,
-0.12032,0.008,,
-0.1203,0.006,,
-0.12028,0.008,,
-0.12026,0,,
-0.12024,0.01,,
-0.12022,0,,
-0.120199988,-0.002,,
-0.12018,0.006,,
-0.12016,0.004,,
-0.120139988,0.02,,
-0.12012,-0.002,,
-0.1201,0.012,,
-0.12008,0.014,,
-0.12006,0,,
-0.12004,0.01,,
-0.12002,-0.002,,
-0.12,0.014,,
-0.11998,0,,
-0.11996,0,,
-0.11994,0.016,,
-0.11992,0,,
-0.1199,0.012,,
-0.11988,0.004,,
-0.119859988,0.014,,
-0.11984,0,,
-0.11982,0,,
-0.1198,0.016,,
-0.11978,0.006,,
-0.11976,0.008,,
-0.11974,0,,
-0.11972,0.008,,
-0.1197,0.012,,
-0.11968,0.008,,
-0.11966,0.012,,
-0.11964,0.01,,
-0.11962,0.01,,
-0.1196,0.008,,
-0.11958,0.01,,
-0.11956,0.006,,
-0.11954,0.01,,
-0.119519988,0.01,,
-0.1195,0.018,,
-0.11948,0.008,,
-0.11946,0.012,,
-0.11944,0.014,,
-0.11942,0.012,,
-0.1194,0.014,,
-0.11938,0.004,,
-0.11936,0.01,,
-0.11934,0.008,,
-0.11932,0.01,,
-0.1193,0.016,,
-0.11928,0.008,,
-0.11926,0.02,,
-0.119239988,0.008,,
-0.11922,0.016,,
-0.1192,0.01,,
-0.11918,0.01,,
-0.11916,0.018,,
-0.11914,0.012,,
-0.11912,0.016,,
-0.1191,0.01,,
-0.11908,0.012,,
-0.11906,0.016,,
-0.11904,0.01,,
-0.11902,0.016,,
-0.119,0.01,,
-0.11898,0.004,,
-0.11896,0.016,,
-0.11894,0.008,,
-0.11892,0.012,,
-0.118899988,0.01,,
-0.11888,0.016,,
-0.11886,0.018,,
-0.11884,0.012,,
-0.11882,0.016,,
-0.1188,0.018,,
-0.11878,0.026,,
-0.11876,0.014,,
-0.11874,0.012,,
-0.11872,0.024,,
-0.1187,0.018,,
-0.11868,0.022,,
-0.11866,0.018,,
-0.11864,0.02,,
-0.118619988,0.024,,
-0.1186,0.02,,
-0.11858,0.028,,
-0.11856,0.028,,
-0.11854,0.036,,
-0.11852,0.028,,
-0.1185,0.026,,
-0.11848,0.036,,
-0.11846,0.03,,
-0.11844,0.038,,
-0.11842,0.042,,
-0.1184,0.028,,
-0.11838,0.044,,
-0.11836,0.036,,
-0.11834,0.04,,
-0.11832,0.052,,
-0.1183,0.044,,
-0.118279988,0.052,,
-0.11826,0.042,,
-0.11824,0.054,,
-0.11822,0.06,,
-0.1182,0.046,,
-0.11818,0.054,,
-0.11816,0.038,,
-0.11814,0.066,,
-0.11812,0.046,,
-0.1181,0.048,,
-0.11808,0.068,,
-0.11806,0.046,,
-0.11804,0.058,,
-0.11802,0.048,,
-0.118,0.06,,
-0.11798,0.062,,
-0.11796,0.05,,
-0.117939988,0.066,,
-0.11792,0.05,,
-0.1179,0.054,,
-0.11788,0.042,,
-0.11786,0.04,,
-0.11784,0.046,,
-0.11782,0.022,,
-0.1178,0.036,,
-0.11778,0.042,,
-0.11776,0.042,,
-0.11774,0.074,,
-0.11772,0.072,,
-0.1177,0.11,,
-0.11768,0.102,,
-0.117659988,0.11,,
-0.11764,0.134,,
-0.11762,0.108,,
-0.1176,0.128,,
-0.11758,0.104,,
-0.11756,0.102,,
-0.11754,0.1,,
-0.11752,0.08,,
-0.1175,0.112,,
-0.11748,0.082,,
-0.11746,0.086,,
-0.11744,0.092,,
-0.11742,0.08,,
-0.1174,0.098,,
-0.11738,0.084,,
-0.11736,0.096,,
-0.11734,0.102,,
-0.117319988,0.096,,
-0.1173,0.114,,
-0.11728,0.098,,
-0.11726,0.11,,
-0.11724,0.11,,
-0.11722,0.106,,
-0.1172,0.122,,
-0.11718,0.1,,
-0.11716,0.13,,
-0.11714,0.126,,
-0.11712,0.124,,
-0.1171,0.142,,
-0.11708,0.124,,
-0.11706,0.154,,
-0.117039988,0.136,,
-0.11702,0.144,,
-0.117,0.17,,
-0.11698,0.14,,
-0.11696,0.158,,
-0.11694,0.146,,
-0.11692,0.16,,
-0.1169,0.152,,
-0.11688,0.144,,
-0.11686,0.166,,
-0.11684,0.144,,
-0.11682,0.162,,
-0.1168,0.144,,
-0.11678,0.15,,
-0.11676,0.166,,
-0.11674,0.144,,
-0.11672,0.154,,
-0.116699988,0.154,,
-0.11668,0.152,,
-0.11666,0.158,,
-0.11664,0.144,,
-0.11662,0.148,,
-0.1166,0.15,,
-0.11658,0.148,,
-0.11656,0.15,,
-0.11654,0.146,,
-0.11652,0.152,,
-0.1165,0.14,,
-0.11648,0.144,,
-0.11646,0.146,,
-0.11644,0.136,,
-0.116419988,0.146,,
-0.1164,0.132,,
-0.11638,0.136,,
-0.11636,0.142,,
-0.11634,0.136,,
-0.11632,0.142,,
-0.1163,0.144,,
-0.11628,0.144,,
-0.11626,0.136,,
-0.11624,0.128,,
-0.11622,0.136,,
-0.1162,0.134,,
-0.11618,0.132,,
-0.11616,0.13,,
-0.11614,-0.188,,
-0.11612,0.084,,
-0.1161,0.064,,
-0.116079988,0.082,,
-0.11606,0.094,,
-0.11604,0.086,,
-0.11602,0.092,,
-0.116,0.078,,
-0.11598,0.086,,
-0.11596,0.08,,
-0.11594,0.086,,
-0.11592,0.096,,
-0.1159,0.078,,
-0.11588,0.082,,
-0.11586,0.076,,
-0.11584,0.088,,
-0.11582,0.072,,
-0.1158,0.02,,
-0.11578,0.014,,
-0.11576,0,,
-0.11574,0.006,,
-0.11572,0.006,,
-0.1157,0.018,,
-0.11568,0.018,,
-0.11566,0.024,,
-0.11564,0.03,,
-0.11562,0.034,,
-0.1156,0.046,,
-0.11558,0.058,,
-0.11556,0.072,,
-0.11554,0.074,,
-0.11552,0.078,,
-0.1155,0.088,,
-0.11548,0.098,,
-0.115459988,0.104,,
-0.11544,0.104,,
-0.11542,0.114,,
-0.1154,0.106,,
-0.11538,0.124,,
-0.11536,0.114,,
-0.11534,0.13,,
-0.11532,0.122,,
-0.1153,0.134,,
-0.11528,0.142,,
-0.11526,0.122,,
-0.11524,0.134,,
-0.11522,0.124,,
-0.1152,0.138,,
-0.11518,0.112,,
-0.11516,0.098,,
-0.11514,0.112,,
-0.115119988,0.084,,
-0.1151,0.088,,
-0.11508,0.05,,
-0.11506,0.062,,
-0.11504,0.048,,
-0.11502,0.05,,
-0.115,0.076,,
-0.11498,0.09,,
-0.11496,0.122,,
-0.11494,0.13,,
-0.11492,0.17,,
-0.1149,0.19,,
-0.11488,0.178,,
-0.11486,0.192,,
-0.114839988,0.176,,
-0.11482,0.184,,
-0.1148,0.154,,
-0.11478,0.142,,
-0.11476,0.132,,
-0.11474,0.126,,
-0.11472,0.112,,
-0.1147,0.114,,
-0.11468,0.098,,
-0.11466,0.104,,
-0.11464,0.108,,
-0.11462,0.108,,
-0.1146,0.116,,
-0.11458,0.114,,
-0.11456,0.136,,
-0.11454,0.126,,
-0.11452,0.128,,
-0.114499988,0.158,,
-0.11448,0.144,,
-0.11446,0.168,,
-0.11444,0.14,,
-0.11442,0.172,,
-0.1144,0.164,,
-0.11438,0.148,,
-0.11436,0.17,,
-0.11434,0.15,,
-0.11432,0.162,,
-0.1143,0.142,,
-0.11428,0.164,,
-0.11426,0.17,,
-0.11424,0.146,,
-0.11422,0.162,,
-0.1142,0.152,,
-0.11418,0.18,,
-0.11416,0.154,,
-0.11414,0.154,,
-0.11412,0.17,,
-0.1141,0.162,,
-0.11408,0.162,,
-0.11406,0.166,,
-0.11404,0.174,,
-0.11402,0.176,,
-0.114,0.176,,
-0.11398,0.176,,
-0.11396,0.172,,
-0.11394,0.162,,
-0.11392,0.17,,
-0.1139,0.166,,
-0.113879988,0.16,,
-0.11386,0.166,,
-0.11384,0.154,,
-0.11382,0.17,,
-0.1138,0.152,,
-0.11378,0.162,,
-0.11376,0.16,,
-0.11374,0.146,,
-0.11372,0.154,,
-0.1137,0.142,,
-0.11368,0.146,,
-0.11366,0.134,,
-0.11364,0.14,,
-0.11362,0.142,,
-0.1136,0.12,,
-0.11358,0.132,,
-0.11356,0.124,,
-0.11354,0.138,,
-0.11352,0.126,,
-0.1135,0.124,,
-0.11348,0.13,,
-0.11346,0.12,,
-0.11344,0.128,,
-0.11342,0.13,,
-0.1134,0.13,,
-0.11338,0.128,,
-0.11336,0.126,,
-0.11334,0.128,,
-0.11332,0.118,,
-0.1133,0.114,,
-0.11328,0.116,,
-0.113259988,0.116,,
-0.11324,0.104,,
-0.11322,0.096,,
-0.1132,0.104,,
-0.11318,0.106,,
-0.11316,0.092,,
-0.11314,0.094,,
-0.11312,0.088,,
-0.1131,0.09,,
-0.11308,0.086,,
-0.11306,0.082,,
-0.11304,0.088,,
-0.11302,0.086,,
-0.113,0.088,,
-0.11298,0.086,,
-0.11296,0.088,,
-0.11294,0.09,,
-0.112919988,0.082,,
-0.1129,0.084,,
-0.11288,0.08,,
-0.11286,0.08,,
-0.11284,0.084,,
-0.11282,0.078,,
-0.1128,0.084,,
-0.11278,0.066,,
-0.11276,0.054,,
-0.11274,0.058,,
-0.11272,0.058,,
-0.1127,0.06,,
-0.11268,0.054,,
-0.11266,0.052,,
-0.11264,0.054,,
-0.11262,0.058,,
-0.1126,0.058,,
-0.11258,0.046,,
-0.11256,0.062,,
-0.11254,0.052,,
-0.11252,0.042,,
-0.1125,0.05,,
-0.11248,0.04,,
-0.11246,0.054,,
-0.11244,0.042,,
-0.11242,0.038,,
-0.1124,0.046,,
-0.11238,0.022,,
-0.11236,0.028,,
-0.11234,0.012,,
-0.11232,0.028,,
-0.112299988,0.016,,
-0.11228,0.006,,
-0.11226,0.03,,
-0.11224,0.012,,
-0.11222,0.026,,
-0.1122,0.024,,
-0.11218,0.022,,
-0.11216,0.036,,
-0.11214,0.02,,
-0.11212,0.028,,
-0.1121,0.028,,
-0.11208,0.02,,
-0.11206,0.038,,
-0.11204,0.016,,
-0.11202,0.086,,
-0.112,0.014,,
-0.11198,0.026,,
-0.11196,0.068,,
-0.11194,0.02,,
-0.11192,0.038,,
-0.1119,0.016,,
-0.11188,0.088,,
-0.11186,0.026,,
-0.11184,0.038,,
-0.11182,0.056,,
-0.1118,0.036,,
-0.11178,0.066,,
-0.11176,0.05,,
-0.11174,0.094,,
-0.11172,0.098,,
-0.1117,0.056,,
-0.111679988,0.092,,
-0.11166,0.068,,
-0.11164,0.072,,
-0.11162,0.09,,
-0.1116,0.064,,
-0.11158,0.086,,
-0.11156,0.064,,
-0.11154,0.072,,
-0.11152,0.092,,
-0.1115,0.052,,
-0.11148,0.084,,
-0.11146,0.06,,
-0.11144,0.068,,
-0.11142,0.082,,
-0.1114,0.06,,
-0.11138,0.086,,
-0.11136,0.048,,
-0.11134,0.076,,
-0.11132,0.088,,
-0.1113,0.056,,
-0.11128,0.084,,
-0.11126,0.056,,
-0.11124,0.084,,
-0.11122,0.07,,
-0.1112,0.062,,
-0.11118,0.088,,
-0.11116,0.062,,
-0.11114,0.074,,
-0.11112,0.068,,
-0.1111,0.07,,
-0.11108,0.08,,
-0.111059988,0.064,,
-0.11104,0.072,,
-0.11102,0.07,,
-0.111,0.074,,
-0.11098,0.066,,
-0.11096,0.068,,
-0.11094,0.08,,
-0.11092,0.062,,
-0.1109,0.066,,
-0.11088,0.07,,
-0.11086,0.066,,
-0.11084,0.068,,
-0.11082,0.056,,
-0.1108,0.058,,
-0.11078,0.074,,
-0.11076,0.06,,
-0.11074,0.07,,
-0.110719988,0.064,,
-0.1107,0.07,,
-0.11068,0.07,,
-0.11066,0.066,,
-0.11064,0.066,,
-0.11062,0.076,,
-0.1106,0.078,,
-0.11058,0.064,,
-0.11056,0.07,,
-0.11054,0.078,,
-0.11052,0.066,,
-0.1105,0.076,,
-0.11048,0.072,,
-0.11046,0.07,,
-0.11044,0.074,,
-0.11042,0.068,,
-0.1104,0.064,,
-0.11038,0.072,,
-0.11036,0.058,,
-0.11034,0.066,,
-0.11032,0.066,,
-0.1103,0.072,,
-0.11028,0.062,,
-0.11026,0.068,,
-0.11024,0.066,,
-0.11022,0.06,,
-0.1102,0.064,,
-0.11018,0.054,,
-0.11016,0.062,,
-0.11014,0.062,,
-0.11012,0.064,,
-0.110099988,0.062,,
-0.11008,0.058,,
-0.11006,0.068,,
-0.11004,0.054,,
-0.11002,0.076,,
-0.11,0.05,,
-0.10998,0.058,,
-0.10996,0.07,,
-0.10994,0.056,,
-0.10992,0.074,,
-0.1099,0.05,,
-0.10988,0.066,,
-0.10986,0.062,,
-0.10984,0.06,,
-0.10982,0.064,,
-0.1098,0.06,,
-0.10978,0.058,,
-0.10976,0.054,,
-0.10974,0.056,,
-0.10972,0.056,,
-0.1097,0.054,,
-0.10968,0.06,,
-0.10966,0.07,,
-0.10964,0.058,,
-0.10962,0.068,,
-0.1096,0.068,,
-0.10958,0.058,,
-0.10956,0.066,,
-0.10954,0.048,,
-0.10952,0.074,,
-0.1095,0.052,,
-0.109479988,0.058,,
-0.10946,0.07,,
-0.10944,0.054,,
-0.10942,0.066,,
-0.1094,0.046,,
-0.10938,0.064,,
-0.10936,0.04,,
-0.10934,0.036,,
-0.10932,0.058,,
-0.1093,0.042,,
-0.10928,0.06,,
-0.10926,0.032,,
-0.10924,0.062,,
-0.10922,0.066,,
-0.1092,0.044,,
-0.10918,0.06,,
-0.10916,0.05,,
-0.10914,0.058,,
-0.10912,0.046,,
-0.1091,0.048,,
-0.10908,0.058,,
-0.10906,0.044,,
-0.10904,0.056,,
-0.10902,0.058,,
-0.109,0.054,,
-0.10898,0.054,,
-0.10896,0.05,,
-0.10894,0.052,,
-0.10892,0.054,,
-0.1089,0.04,,
-0.10888,0.056,,
-0.10886,0.04,,
-0.10884,0.042,,
-0.10882,0.062,,
-0.1088,0.04,,
-0.10878,0.058,,
-0.10876,0.036,,
-0.10874,0.052,,
-0.10872,0.04,,
-0.1087,0.03,,
-0.10868,0.054,,
-0.10866,0.038,,
-0.10864,0.05,,
-0.10862,0.032,,
-0.1086,0.052,,
-0.10858,0.06,,
-0.10856,0.032,,
-0.10854,0.05,,
-0.108519988,0.036,,
-0.1085,0.044,,
-0.10848,0.036,,
-0.10846,0.046,,
-0.10844,0.05,,
-0.10842,0.038,,
-0.1084,0.046,,
-0.10838,0.046,,
-0.10836,0.052,,
-0.10834,0.038,,
-0.10832,0.044,,
-0.1083,0.046,,
-0.10828,0.044,,
-0.10826,0.044,,
-0.10824,0.04,,
-0.10822,0.046,,
-0.1082,0.04,,
-0.10818,0.058,,
-0.10816,0.044,,
-0.10814,0.052,,
-0.10812,0.046,,
-0.1081,0.048,,
-0.10808,0.32,,
-0.10806,0.106,,
-0.10804,0.02,,
-0.10802,-0.004,,
-0.108,0.026,,
-0.10798,-0.002,,
-0.10796,0.014,,
-0.10794,0.012,,
-0.10792,-0.002,,
-0.107899988,0.018,,
-0.10788,-0.004,,
-0.10786,0.002,,
-0.10784,-0.004,,
-0.10782,0.004,,
-0.1078,0.006,,
-0.10778,-0.002,,
-0.10776,0.008,,
-0.10774,0.006,,
-0.10772,0.014,,
-0.1077,0.002,,
-0.10768,0.004,,
-0.10766,0.016,,
-0.10764,0,,
-0.10762,0.01,,
-0.1076,0.01,,
-0.10758,0,,
-0.10756,0.014,,
-0.10754,0.006,,
-0.10752,0.01,,
-0.1075,0.006,,
-0.10748,0,,
-0.10746,0.01,,
-0.10744,0.004,,
-0.10742,0,,
-0.1074,-0.002,,
-0.10738,0.006,,
-0.10736,0.02,,
-0.10734,0,,
-0.10732,0.008,,
-0.1073,0,,
-0.107279988,0.04,,
-0.10726,0.002,,
-0.10724,-0.01,,
-0.10722,0.004,,
-0.1072,0.002,,
-0.10718,0,,
-0.10716,0.002,,
-0.10714,-0.006,,
-0.10712,0.012,,
-0.1071,0.002,,
-0.10708,0.004,,
-0.10706,0.008,,
-0.10704,0.008,,
-0.10702,0.016,,
-0.107,0.004,,
-0.10698,0.01,,
-0.10696,0.012,,
-0.10694,-0.004,,
-0.10692,0.014,,
-0.1069,-0.006,,
-0.10688,0.012,,
-0.10686,0.004,,
-0.10684,-0.008,,
-0.10682,0.018,,
-0.1068,0.002,,
-0.10678,0.016,,
-0.10676,0.002,,
-0.10674,0.012,,
-0.10672,0.02,,
-0.1067,-0.002,,
-0.10668,0.008,,
-0.10666,-0.008,,
-0.10664,0.012,,
-0.10662,-0.002,,
-0.1066,-0.004,,
-0.10658,0.032,,
-0.10656,-0.018,,
-0.10654,0.018,,
-0.10652,-0.012,,
-0.1065,0.012,,
-0.10648,0.008,,
-0.10646,-0.02,,
-0.10644,0.024,,
-0.10642,0.002,,
-0.1064,-0.002,,
-0.10638,0.02,,
-0.10636,-0.012,,
-0.10634,0.022,,
-0.106319988,0,,
-0.1063,0,,
-0.10628,0.02,,
-0.10626,-0.016,,
-0.10624,0.022,,
-0.10622,-0.01,,
-0.1062,0.014,,
-0.10618,0.006,,
-0.10616,-0.008,,
-0.10614,0.028,,
-0.10612,-0.026,,
-0.1061,0.018,,
-0.10608,-0.002,,
-0.10606,0,,
-0.10604,0.016,,
-0.10602,-0.018,,
-0.106,0.04,,
-0.10598,-0.008,,
-0.10596,0.006,,
-0.10594,0.02,,
-0.10592,-0.024,,
-0.1059,0.024,,
-0.10588,-0.008,,
-0.10586,0.016,,
-0.10584,0.008,,
-0.10582,-0.022,,
-0.1058,0.028,,
-0.10578,-0.014,,
-0.10576,0.016,,
-0.10574,0.004,,
-0.10572,-0.008,,
-0.105699988,0.022,,
-0.10568,-0.028,,
-0.10566,0.026,,
-0.10564,0.002,,
-0.10562,-0.022,,
-0.1056,0.016,,
-0.10558,-0.02,,
-0.10556,0.018,,
-0.10554,-0.016,,
-0.10552,0.008,,
-0.1055,0.022,,
-0.10548,-0.022,,
-0.10546,0.016,,
-0.10544,-0.014,,
-0.10542,0.03,,
-0.1054,0.004,,
-0.10538,-0.012,,
-0.10536,0.032,,
-0.10534,-0.004,,
-0.10532,0.01,,
-0.1053,0.004,,
-0.10528,-0.012,,
-0.10526,0.022,,
-0.10524,0.004,,
-0.10522,0.008,,
-0.1052,0.012,,
-0.10518,0,,
-0.10516,0.012,,
-0.10514,-0.004,,
-0.10512,0.012,,
-0.1051,0.004,,
-0.10508,-0.006,,
-0.10506,0.006,,
-0.10504,-0.012,,
-0.10502,0.018,,
-0.105,0,,
-0.10498,-0.012,,
-0.10496,0.01,,
-0.10494,-0.012,,
-0.10492,0.006,,
-0.1049,-0.008,,
-0.10488,0.004,,
-0.10486,0.012,,
-0.104839994,-0.002,,
-0.10482,0.004,,
-0.1048,0.002,,
-0.104779994,0.016,,
-0.10476,0.004,,
-0.104739994,-0.008,,
-0.104719994,0.008,,
-0.1047,-0.002,,
-0.104679994,0.012,,
-0.10466,0.004,,
-0.10464,-0.002,,
-0.104619994,0.022,,
-0.1046,0.002,,
-0.10458,0.01,,
-0.104559994,0.004,,
-0.10454,-0.004,,
-0.10452,0.008,,
-0.104499994,-0.002,,
-0.10448,0.016,,
-0.10446,-0.004,,
-0.104439994,0.004,,
-0.10442,0.012,,
-0.104399994,-0.004,,
-0.104379994,0.014,,
-0.10436,-0.004,,
-0.104339994,0.008,,
-0.10432,-0.006,,
-0.1043,-0.01,,
-0.104279994,0.008,,
-0.10426,-0.006,,
-0.10424,0.006,,
-0.104219994,0.008,,
-0.1042,0.01,,
-0.10418,0.002,,
-0.104159994,0.008,,
-0.10414,0.008,,
-0.104119994,0.006,,
-0.104099994,-0.008,,
-0.10408,0.004,,
-0.104059994,-0.004,,
-0.104039994,-0.002,,
-0.10402,0.008,,
-0.103999994,0.002,,
-0.10398,0.018,,
-0.10396,0.002,,
-0.103939994,0.014,,
-0.10392,0.004,,
-0.1039,-0.006,,
-0.103879994,0.01,,
-0.10386,-0.004,,
-0.10384,0.014,,
-0.103819994,-0.012,,
-0.1038,0.012,,
-0.103779994,0.02,,
-0.103759994,-0.006,,
-0.10374,0.008,,
-0.103719994,0.002,,
-0.1037,0.024,,
-0.10368,0.006,,
-0.103659994,-0.008,,
-0.10364,0.012,,
-0.10362,0,,
-0.103599994,0.002,,
-0.10358,0.006,,
-0.10356,0.008,,
-0.103539994,0.004,,
-0.10352,0.008,,
-0.103499994,0.006,,
-0.103479994,0.006,,
-0.10346,-0.004,,
-0.103439994,0.008,,
-0.103419994,0.002,,
-0.1034,0.004,,
-0.103379994,0.01,,
-0.10336,0.002,,
-0.10334,0.014,,
-0.103319994,0.004,,
-0.1033,0.01,,
-0.10328,0.014,,
-0.103259994,-0.004,,
-0.10324,0.012,,
-0.10322,0,,
-0.103199994,0.012,,
-0.10318,0,,
-0.103159994,0.012,,
-0.103139994,0.018,,
-0.10312,0,,
-0.103099994,0.01,,
-0.10308,0.004,,
-0.10306,0.022,,
-0.103039994,0.002,,
-0.10302,-0.004,,
-0.103,0.016,,
-0.102979994,0.006,,
-0.10296,0.014,,
-0.10294,0.006,,
-0.102919994,0.018,,
-0.1029,0.01,,
-0.10288,0.01,,
-0.102859994,0.012,,
-0.10284,0.01,,
-0.102819994,0.006,,
-0.102799994,0.008,,
-0.10278,0.012,,
-0.102759994,0.008,,
-0.10274,0.006,,
-0.10272,0.012,,
-0.102699994,0.016,,
-0.10268,0.016,,
-0.10266,0.014,,
-0.102639994,0.016,,
-0.10262,0.002,,
-0.1026,0.012,,
-0.102579994,0.006,,
-0.10256,0.018,,
-0.102539994,0.01,,
-0.102519994,0.014,,
-0.1025,0.02,,
-0.102479994,0.008,,
-0.10246,0.012,,
-0.10244,0.01,,
-0.102419994,0.02,,
-0.1024,0.006,,
-0.10238,0.002,,
-0.102359994,0.016,,
-0.10234,0.008,,
-0.10232,0.026,,
-0.102299994,0.008,,
-0.10228,0.022,,
-0.10226,0.012,,
-0.102239994,0.012,,
-0.10222,0.018,,
-0.102199994,0.014,,
-0.102179994,0.016,,
-0.10216,0.01,,
-0.102139994,0.016,,
-0.10212,0.014,,
-0.1021,0.01,,
-0.102079994,0.02,,
-0.10206,0.018,,
-0.10204,0.022,,
-0.102019994,0.018,,
-0.102,0.018,,
-0.10198,0.018,,
-0.101959994,0.022,,
-0.10194,0.02,,
-0.101919994,0.026,,
-0.101899994,0.024,,
-0.10188,0.028,,
-0.101859994,0.032,,
-0.101839994,0.032,,
-0.10182,0.03,,
-0.101799994,0.028,,
-0.10178,0.038,,
-0.10176,0.034,,
-0.101739994,0.038,,
-0.10172,0.044,,
-0.1017,0.042,,
-0.101679994,0.058,,
-0.10166,0.052,,
-0.10164,0.048,,
-0.101619994,0.054,,
-0.1016,0.054,,
-0.101579994,0.058,,
-0.101559994,0.046,,
-0.10154,0.05,,
-0.101519994,0.048,,
-0.1015,0.048,,
-0.10148,0.046,,
-0.101459994,0.046,,
-0.10144,0.056,,
-0.10142,0.046,,
-0.101399994,0.05,,
-0.10138,0.058,,
-0.10136,0.046,,
-0.101339994,0.062,,
-0.10132,0.052,,
-0.1013,0.052,,
-0.101279994,0.062,,
-0.10126,0.048,,
-0.101239994,0.052,,
-0.101219994,0.04,,
-0.1012,0.048,,
-0.101179994,0.034,,
-0.10116,0.026,,
-0.10114,0.044,,
-0.101119994,0.038,,
-0.1011,0.062,,
-0.10108,0.062,,
-0.101059994,0.076,,
-0.10104,0.102,,
-0.10102,0.1,,
-0.100999994,0.118,,
-0.10098,0.13,,
-0.100959994,0.128,,
-0.100939994,0.12,,
-0.10092,0.106,,
-0.100899994,0.104,,
-0.10088,0.1,,
-0.10086,0.09,,
-0.100839994,0.092,,
-0.10082,0.074,,
-0.1008,0.092,,
-0.100779994,0.084,,
-0.10076,0.082,,
-0.10074,0.096,,
-0.100719994,0.082,,
-0.1007,0.106,,
-0.10068,0.084,,
-0.100659994,0.098,,
-0.10064,0.112,,
-0.100619994,0.094,,
-0.100599994,0.112,,
-0.10058,0.094,,
-0.100559994,0.128,,
-0.10054,0.112,,
-0.10052,0.108,,
-0.100499994,0.14,,
-0.10048,0.12,,
-0.10046,0.138,,
-0.100439994,0.122,,
-0.10042,0.138,,
-0.1004,0.154,,
-0.100379994,0.124,,
-0.10036,0.158,,
-0.100339994,0.142,,
-0.100319994,0.154,,
-0.1003,0.156,,
-0.100279994,0.146,,
-0.10026,0.174,,
-0.10024,0.14,,
-0.100219994,0.15,,
-0.1002,0.16,,
-0.10018,0.136,,
-0.100159994,0.158,,
-0.10014,0.142,,
-0.10012,0.166,,
-0.100099994,0.148,,
-0.10008,0.14,,
-0.10006,0.17,,
-0.100039994,0.142,,
-0.10002,0.162,,
-0.099999994,0.15,,
-0.099979994,0.152,,
-0.09996,0.162,,
-0.099939994,0.138,,
-0.09992,0.164,,
-0.0999,0.144,,
-0.099879994,0.16,,
-0.09986,0.152,,
-0.09984,0.14,,
-0.099819994,0.156,,
-0.0998,0.132,,
-0.09978,0.142,,
-0.099759994,0.142,,
-0.09974,0.122,,
-0.099719994,0.14,,
-0.099699994,0.126,,
-0.09968,0.132,,
-0.099659994,0.14,,
-0.09964,0.128,,
-0.09962,0.14,,
-0.099599994,0.124,,
-0.09958,0.142,,
-0.09956,0.144,,
-0.099539994,0.126,,
-0.09952,0.136,,
-0.0995,0.122,,
-0.099479994,0.32,,
-0.09946,0.286,,
-0.09944,0.176,,
-0.099419994,0.116,,
-0.0994,0.072,,
-0.099379994,0.092,,
-0.099359994,0.082,,
-0.09934,0.092,,
-0.099319994,0.094,,
-0.0993,0.084,,
-0.09928,0.09,,
-0.099259994,0.078,,
-0.09924,0.086,,
-0.09922,0.08,,
-0.099199994,0.084,,
-0.09918,0.09,,
-0.09916,0.06,,
-0.099139994,0.024,,
-0.09912,-0.002,,
-0.0991,0,,
-0.099079994,0.008,,
-0.09906,-0.002,,
-0.099039994,0.012,,
-0.099019994,0.016,,
-0.099,0.016,,
-0.098979994,0.026,,
-0.09896,0.034,,
-0.09894,0.054,,
-0.098919994,0.058,,
-0.0989,0.064,,
-0.09888,0.076,,
-0.098859994,0.084,,
-0.09884,0.098,,
-0.09882,0.092,,
-0.098799994,0.104,,
-0.09878,0.106,,
-0.098759994,0.112,,
-0.098739994,0.122,,
-0.09872,0.12,,
-0.098699994,0.126,,
-0.09868,0.132,,
-0.09866,0.13,,
-0.098639994,0.132,,
-0.09862,0.13,,
-0.0986,0.126,,
-0.098579994,0.132,,
-0.09856,0.13,,
-0.09854,0.132,,
-0.098519994,0.118,,
-0.0985,0.118,,
-0.09848,0.112,,
-0.098459994,0.088,,
-0.09844,0.076,,
-0.098419994,0.05,,
-0.098399994,0.052,,
-0.09838,0.044,,
-0.098359994,0.052,,
-0.09834,0.07,,
-0.09832,0.08,,
-0.098299994,0.12,,
-0.09828,0.14,,
-0.09826,0.18,,
-0.098239994,0.182,,
-0.09822,0.182,,
-0.0982,0.2,,
-0.098179994,0.17,,
-0.09816,0.172,,
-0.098139994,0.146,,
-0.098119994,0.156,,
-0.0981,0.148,,
-0.098079994,0.126,,
-0.09806,0.116,,
-0.09804,0.106,,
-0.098019994,0.108,,
-0.098,0.098,,
-0.09798,0.102,,
-0.097959994,0.1,,
-0.09794,0.108,,
-0.09792,0.118,,
-0.097899994,0.136,,
-0.09788,0.142,,
-0.09786,0.146,,
-0.097839994,0.154,,
-0.09782,0.146,,
-0.097799994,0.154,,
-0.097779994,0.138,,
-0.09776,0.16,,
-0.097739994,0.148,,
-0.09772,0.148,,
-0.0977,0.17,,
-0.097679994,0.15,,
-0.09766,0.164,,
-0.09764,0.152,,
-0.097619994,0.172,,
-0.0976,0.154,,
-0.09758,0.142,,
-0.097559994,0.17,,
-0.09754,0.154,,
-0.09752,0.17,,
-0.097499994,0.146,,
-0.09748,0.174,,
-0.097459994,0.184,,
-0.09744,0.15,,
-0.09742,0.172,,
-0.097399994,0.164,,
-0.09738,0.184,,
-0.09736,0.16,,
-0.097339994,0.168,,
-0.09732,0.174,,
-0.0973,0.164,,
-0.097279994,0.172,,
-0.09726,0.172,,
-0.09724,0.18,,
-0.097219994,0.162,,
-0.0972,0.16,,
-0.097179994,0.164,,
-0.097159994,0.16,,
-0.09714,0.15,,
-0.097119994,0.148,,
-0.0971,0.15,,
-0.09708,0.146,,
-0.097059994,0.162,,
-0.09704,0.144,,
-0.09702,0.15,,
-0.096999994,0.138,,
-0.09698,0.142,,
-0.09696,0.128,,
-0.096939994,0.12,,
-0.09692,0.14,,
-0.0969,0.126,,
-0.096879994,0.144,,
-0.09686,0.116,,
-0.096839994,0.136,,
-0.096819994,0.142,,
-0.0968,0.116,,
-0.096779994,0.132,,
-0.09676,0.116,,
-0.09674,0.14,,
-0.096719994,0.114,,
-0.0967,0.124,,
-0.09668,0.126,,
-0.096659994,0.116,,
-0.09664,0.12,,
-0.09662,0.116,,
-0.096599994,0.124,,
-0.09658,0.11,,
-0.096559994,0.108,,
-0.096539994,0.112,,
-0.09652,0.102,,
-0.096499994,0.096,,
-0.09648,0.088,,
-0.09646,0.096,,
-0.096439994,0.098,,
-0.09642,0.096,,
-0.0964,0.096,,
-0.096379994,0.1,,
-0.09636,0.098,,
-0.09634,0.096,,
-0.096319994,0.098,,
-0.0963,0.09,,
-0.09628,0.096,,
-0.096259994,0.094,,
-0.09624,0.102,,
-0.096219994,0.09,,
-0.096199994,0.096,,
-0.09618,0.098,,
-0.096159994,0.084,,
-0.09614,0.092,,
-0.09612,0.076,,
-0.096099994,0.09,,
-0.09608,0.08,,
-0.09606,0.084,,
-0.096039994,0.086,,
-0.09602,0.08,,
-0.096,0.086,,
-0.095979994,0.064,,
-0.09596,0.064,,
-0.095939994,0.05,,
-0.095919994,0.05,,
-0.0959,0.056,,
-0.095879994,0.048,,
-0.09586,0.056,,
-0.09584,0.054,,
-0.095819994,0.05,,
-0.0958,0.062,,
-0.09578,0.042,,
-0.095759994,0.052,,
-0.09574,0.048,,
-0.09572,0.038,,
-0.095699994,0.04,,
-0.09568,0.022,,
-0.09566,0.016,,
-0.095639994,0.01,,
-0.09562,0.014,,
-0.095599994,0.022,,
-0.095579994,0.016,,
-0.09556,0.02,,
-0.095539994,0.024,,
-0.09552,0.034,,
-0.0955,0.032,,
-0.095479994,0.026,,
-0.09546,0.036,,
-0.09544,0.024,,
-0.095419994,0.018,,
-0.0954,0.018,,
-0.09538,0.014,,
-0.095359994,0.016,,
-0.09534,0.012,,
-0.09532,0.018,,
-0.095299994,0.012,,
-0.09528,0.014,,
-0.095259994,0.016,,
-0.09524,0.012,,
-0.09522,0.022,,
-0.095199994,0.016,,
-0.09518,0.014,,
-0.09516,0.02,,
-0.095139994,0.016,,
-0.09512,0.018,,
-0.0951,0.01,,
-0.095079994,0.018,,
-0.09506,0.022,,
-0.09504,0.008,,
-0.095019994,0.02,,
-0.095,0.012,,
-0.094979994,0.02,,
-0.094959994,0.024,,
-0.09494,0.014,,
-0.094919994,0.02,,
-0.0949,0.008,,
-0.09488,0.104,,
-0.094859994,0.014,,
-0.09484,0.088,,
-0.09482,0.03,,
-0.094799994,0.022,,
-0.09478,0.038,,
-0.09476,0.036,,
-0.094739994,0.096,,
-0.09472,0.086,,
-0.0947,0.054,,
-0.094679994,0.098,,
-0.09466,0.026,,
-0.094639994,0.12,,
-0.094619994,0.086,,
-0.0946,0.088,,
-0.094579994,0.086,,
-0.09456,0.058,,
-0.09454,0.084,,
-0.094519994,0.072,,
-0.0945,0.068,,
-0.09448,0.074,,
-0.094459994,0.062,,
-0.09444,0.088,,
-0.09442,0.062,,
-0.094399994,0.072,,
-0.09438,0.076,,
-0.094359994,0.058,,
-0.094339994,0.08,,
-0.09432,0.052,,
-0.094299994,0.084,,
-0.09428,0.07,,
-0.09426,0.058,,
-0.094239994,0.094,,
-0.09422,0.062,,
-0.0942,0.076,,
-0.094179994,0.066,,
-0.09416,0.064,,
-0.09414,0.086,,
-0.094119994,0.052,,
-0.0941,0.08,,
-0.09408,0.074,,
-0.094059994,0.07,,
-0.09404,0.078,,
-0.094019994,0.062,,
-0.093999994,0.074,,
-0.09398,0.06,,
-0.093959994,0.076,,
-0.09394,0.074,,
-0.09392,0.056,,
-0.093899994,0.082,,
-0.09388,0.06,,
-0.09386,0.068,,
-0.093839994,0.072,,
-0.09382,0.054,,
-0.0938,0.084,,
-0.093779994,0.054,,
-0.09376,0.072,,
-0.09374,0.082,,
-0.093719994,0.058,,
-0.0937,0.074,,
-0.093679994,0.06,,
-0.09366,0.084,,
-0.09364,0.064,,
-0.093619994,0.064,,
-0.0936,0.08,,
-0.09358,0.054,,
-0.093559994,0.08,,
-0.09354,0.05,,
-0.09352,0.068,,
-0.093499994,0.08,,
-0.09348,0.046,,
-0.09346,0.07,,
-0.093439994,0.064,,
-0.09342,0.064,,
-0.093399994,0.064,,
-0.093379994,0.052,,
-0.09336,0.066,,
-0.093339994,0.056,,
-0.09332,0.06,,
-0.0933,0.062,,
-0.093279994,0.056,,
-0.09326,0.068,,
-0.09324,0.05,,
-0.093219994,0.062,,
-0.0932,0.066,,
-0.09318,0.048,,
-0.093159994,0.066,,
-0.09314,0.058,,
-0.09312,0.066,,
-0.093099994,0.076,,
-0.09308,0.06,,
-0.093059994,0.062,,
-0.09304,0.062,,
-0.09302,0.066,,
-0.092999994,0.058,,
-0.09298,0.058,,
-0.09296,0.06,,
-0.092939994,0.064,,
-0.09292,0.056,,
-0.0929,0.056,,
-0.092879994,0.066,,
-0.09286,0.074,,
-0.09284,0.06,,
-0.092819994,0.064,,
-0.0928,0.062,,
-0.092779994,0.058,,
-0.092759994,0.056,,
-0.09274,0.044,,
-0.092719994,0.052,,
-0.0927,0.046,,
-0.09268,0.052,,
-0.092659994,0.056,,
-0.09264,0.044,,
-0.09262,0.05,,
-0.092599994,0.038,,
-0.09258,0.06,,
-0.09256,0.052,,
-0.092539994,0.046,,
-0.09252,0.062,,
-0.0925,0.048,,
-0.092479994,0.066,,
-0.09246,0.054,,
-0.092439994,0.064,,
-0.092419994,0.052,,
-0.0924,0.052,,
-0.092379994,0.058,,
-0.09236,0.052,,
-0.09234,0.052,,
-0.092319994,0.046,,
-0.0923,0.058,,
-0.09228,0.054,,
-0.092259994,0.046,,
-0.09224,0.05,,
-0.09222,0.048,,
-0.092199994,0.06,,
-0.09218,0.044,,
-0.09216,0.058,,
-0.092139994,0.04,,
-0.09212,0.048,,
-0.092099994,0.042,,
-0.09208,0.05,,
-0.09206,0.046,,
-0.092039994,0.048,,
-0.09202,0.052,,
-0.092,0.042,,
-0.091979994,0.042,,
-0.09196,0.038,,
-0.09194,0.05,,
-0.091919994,0.04,,
-0.0919,0.032,,
-0.09188,0.054,,
-0.091859994,0.042,,
-0.09184,0.058,,
-0.091819994,0.032,,
-0.091799994,0.064,,
-0.09178,0.042,,
-0.091759994,0.042,,
-0.09174,0.054,,
-0.09172,0.044,,
-0.091699994,0.052,,
-0.09168,0.032,,
-0.09166,0.058,,
-0.091639994,0.06,,
-0.09162,0.048,,
-0.0916,0.06,,
-0.091579994,0.056,,
-0.09156,0.034,,
-0.09154,-0.01,,
-0.091519994,-0.004,,
-0.0915,0.03,,
-0.091479994,-0.014,,
-0.09146,0.01,,
-0.09144,-0.008,,
-0.091419994,0.32,,
-0.0914,0.32,,
-0.09138,0.082,,
-0.091359994,0.016,,
-0.09134,-0.01,,
-0.09132,-0.002,,
-0.091299994,0.006,,
-0.09128,-0.008,,
-0.09126,-0.004,,
-0.091239994,0.018,,
-0.09122,-0.004,,
-0.091199994,0.02,,
-0.091179994,-0.012,,
-0.09116,0.02,,
-0.091139994,0.004,,
-0.09112,-0.006,,
-0.0911,0.018,,
-0.091079994,0,,
-0.09106,0.01,,
-0.09104,-0.012,,
-0.091019994,0.01,,
-0.091,0.026,,
-0.09098,-0.008,,
-0.090959994,0.012,,
-0.09094,-0.004,,
-0.09092,0.022,,
-0.090899994,-0.002,,
-0.09088,-0.002,,
-0.090859994,0.006,,
-0.09084,0.002,,
-0.09082,0.008,,
-0.090799994,0.008,,
-0.09078,0.01,,
-0.09076,0.004,,
-0.090739994,0.014,,
-0.09072,0.01,,
-0.0907,0.002,,
-0.090679994,-0.006,,
-0.09066,0.004,,
-0.09064,-0.002,,
-0.090619994,-0.016,,
-0.0906,-0.008,,
-0.090579994,0.002,,
-0.090559994,0.022,,
-0.09054,0,,
-0.090519994,0.014,,
-0.0905,0,,
-0.09048,-0.006,,
-0.090459994,0.008,,
-0.09044,-0.002,,
-0.09042,0.016,,
-0.090399994,0.018,,
-0.09038,0.016,,
-0.09036,0.012,,
-0.090339994,0,,
-0.09032,0.008,,
-0.0903,0,,
-0.090279994,0.01,,
-0.09026,0,,
-0.090239994,0,,
-0.090219994,0.01,,
-0.0902,0,,
-0.090179994,0.01,,
-0.09016,0.012,,
-0.09014,0.008,,
-0.090119994,0.014,,
-0.0901,0.01,,
-0.09008,0.014,,
-0.090059994,0.008,,
-0.09004,0.004,,
-0.09002,0.006,,
-0.089999994,-0.006,,
-0.08998,0.006,,
-0.08996,-0.01,,
-0.089939994,0.014,,
-0.08992,-0.002,,
-0.089899994,-0.008,,
-0.08988,0.006,,
-0.08986,-0.006,,
-0.089839994,0.006,,
-0.08982,-0.01,,
-0.0898,0.004,,
-0.089779994,0.01,,
-0.08976,-0.004,,
-0.08974,0.01,,
-0.089719994,0.002,,
-0.0897,0.02,,
-0.08968,0.01,,
-0.089659994,-0.01,,
-0.08964,0.01,,
-0.089619994,0.002,,
-0.089599994,0.012,,
-0.08958,0.01,,
-0.089559994,-0.008,,
-0.08954,0.024,,
-0.08952,0.004,,
-0.089499994,0.01,,
-0.08948,0.01,,
-0.08946,0.01,,
-0.089439994,0.008,,
-0.08942,-0.006,,
-0.0894,0.014,,
-0.089379994,0,,
-0.08936,0,,
-0.08934,0.016,,
-0.089319994,-0.018,,
-0.0893,0.02,,
-0.089279994,-0.008,,
-0.08926,-0.018,,
-0.08924,0.016,,
-0.089219994,-0.016,,
-0.0892,0.022,,
-0.08918,-0.02,,
-0.089159994,0.008,,
-0.08914,0.018,,
-0.08912,-0.022,,
-0.089099994,0.02,,
-0.08908,-0.02,,
-0.08906,0.036,,
-0.089039994,-0.006,,
-0.08902,-0.01,,
-0.088999994,0.032,,
-0.088979994,-0.016,,
-0.08896,0.028,,
-0.088939994,-0.006,,
-0.08892,0.002,,
-0.0889,0.02,,
-0.088879994,-0.022,,
-0.08886,0.032,,
-0.08884,0.002,,
-0.088819994,0.006,,
-0.0888,0.01,,
-0.08878,-0.01,,
-0.088759994,0.03,,
-0.08874,-0.01,,
-0.08872,0.008,,
-0.088699994,0.02,,
-0.08868,-0.024,,
-0.088659994,0.022,,
-0.08864,-0.008,,
-0.08862,0.008,,
-0.088599994,0.008,,
-0.08858,-0.01,,
-0.08856,0.034,,
-0.088539994,-0.016,,
-0.08852,0.012,,
-0.0885,0.006,,
-0.088479994,-0.016,,
-0.08846,0.018,,
-0.08844,-0.012,,
-0.088419994,0.02,,
-0.0884,-0.002,,
-0.08838,-0.012,,
-0.088359994,0.024,,
-0.08834,-0.012,,
-0.088319994,0.024,,
-0.0883,0.004,,
-0.08828,-0.004,,
-0.088259994,0.02,,
-0.08824,-0.014,,
-0.08822,0.022,,
-0.088199994,-0.004,,
-0.08818,-0.012,,
-0.08816,0.016,,
-0.088139994,-0.008,,
-0.08812,0.022,,
-0.0881,-0.012,,
-0.088079994,0.01,,
-0.08806,0.01,,
-0.088039994,-0.016,,
-0.08802,0.016,,
-0.088,-0.012,,
-0.087979994,0.03,,
-0.08796,0.004,,
-0.08794,-0.008,,
-0.087919994,0.034,,
-0.0879,-0.006,,
-0.08788,0.012,,
-0.087859994,-0.002,,
-0.08784,0,,
-0.08782,0.012,,
-0.087799994,-0.01,,
-0.08778,0.006,,
-0.08776,0.004,,
-0.087739994,0.008,,
-0.08772,0.006,,
-0.087699994,-0.006,,
-0.08768,0.018,,
-0.08766,-0.002,,
-0.087639994,0.01,,
-0.08762,0.014,,
-0.0876,-0.004,,
-0.087579994,0.014,,
-0.08756,-0.008,,
-0.08754,-0.012,,
-0.087519994,0.006,,
-0.0875,-0.002,,
-0.08748,0.002,,
-0.087459994,-0.012,,
-0.08744,0.008,,
-0.087419994,0.008,,
-0.087399994,0.002,,
-0.08738,0.012,,
-0.087359994,0.002,,
-0.08734,0.016,,
-0.08732,0.004,,
-0.087299994,0,,
-0.08728,0.012,,
-0.08726,0.002,,
-0.087239994,0.004,,
-0.08722,0.004,,
-0.0872,-0.002,,
-0.087179994,0.014,,
-0.08716,-0.002,,
-0.08714,0.008,,
-0.087119994,0.002,,
-0.0871,-0.004,,
-0.087079994,0.01,,
-0.08706,0.004,,
-0.08704,0.014,,
-0.087019994,0.002,,
-0.087,0.004,,
-0.08698,0.006,,
-0.086959994,0,,
-0.08694,0.01,,
-0.08692,0,,
-0.086899994,0.002,,
-0.08688,0,,
-0.08686,0,,
-0.086839994,0.002,,
-0.08682,0.002,,
-0.086799994,0.01,,
-0.086779994,0.01,,
-0.08676,0.01,,
-0.086739994,0.004,,
-0.08672,0.008,,
-0.0867,0.012,,
-0.086679994,0.004,,
-0.08666,0.004,,
-0.08664,0.002,,
-0.086619994,0.004,,
-0.0866,0.008,,
-0.08658,0.014,,
-0.086559994,0.006,,
-0.08654,0.012,,
-0.08652,0.004,,
-0.086499994,0.01,,
-0.08648,0.004,,
-0.086459994,0.002,,
-0.08644,0.012,,
-0.08642,0.006,,
-0.086399994,0.016,,
-0.08638,0.002,,
-0.08636,0.014,,
-0.086339994,0.02,,
-0.08632,0.002,,
-0.0863,0.014,,
-0.086279994,0.004,,
-0.08626,0.018,,
-0.08624,0.004,,
-0.086219994,0.008,,
-0.0862,0.012,,
-0.08618,0.004,,
-0.086159994,0.012,,
-0.08614,0.01,,
-0.086119994,0.02,,
-0.0861,0.006,,
-0.08608,0.006,,
-0.086059994,0.018,,
-0.08604,0.01,,
-0.08602,0.012,,
-0.085999994,-0.002,,
-0.08598,0.016,,
-0.08596,0.012,,
-0.085939994,0.016,,
-0.08592,0.014,,
-0.0859,0.012,,
-0.085879994,0.006,,
-0.08586,0.014,,
-0.085839994,0.01,,
-0.08582,0.01,,
-0.0858,0.014,,
-0.085779994,0.01,,
-0.08576,0.018,,
-0.08574,0.008,,
-0.085719994,0.02,,
-0.0857,0.022,,
-0.08568,0.01,,
-0.085659994,0.016,,
-0.08564,0,,
-0.08562,0.024,,
-0.085599994,0.004,,
-0.08558,0.008,,
-0.08556,0.024,,
-0.085539994,0.006,,
-0.08552,0.018,,
-0.085499994,0.014,,
-0.08548,0.026,,
-0.08546,0.014,,
-0.085439994,0.01,,
-0.08542,0.026,,
-0.0854,0.014,,
-0.085379994,0.018,,
-0.08536,0.008,,
-0.08534,0.024,,
-0.085319994,0.026,,
-0.0853,0.018,,
-0.08528,0.022,,
-0.085259994,0.024,,
-0.08524,0.024,,
-0.085219994,0.024,,
-0.085199994,0.032,,
-0.08518,0.024,,
-0.085159994,0.028,,
-0.08514,0.034,,
-0.08512,0.042,,
-0.085099994,0.042,,
-0.08508,0.044,,
-0.08506,0.046,,
-0.085039994,0.04,,
-0.08502,0.048,,
-0.085,0.04,,
-0.084979994,0.052,,
-0.08496,0.042,,
-0.08494,0.044,,
-0.084919994,0.054,,
-0.0849,0.044,,
-0.084879994,0.058,,
-0.08486,0.048,,
-0.08484,0.056,,
-0.084819994,0.044,,
-0.0848,0.042,,
-0.08478,0.058,,
-0.084759994,0.048,,
-0.08474,0.06,,
-0.08472,0.05,,
-0.084699994,0.056,,
-0.08468,0.058,,
-0.08466,0.05,,
-0.084639994,0.056,,
-0.08462,0.054,,
-0.0846,0.052,,
-0.084579994,0.044,,
-0.08456,0.044,,
-0.084539994,0.034,,
-0.08452,0.036,,
-0.0845,0.036,,
-0.084479994,0.042,,
-0.08446,0.04,,
-0.08444,0.048,,
-0.084419994,0.072,,
-0.0844,0.08,,
-0.08438,0.096,,
-0.084359994,0.1,,
-0.08434,0.116,,
-0.08432,0.12,,
-0.084299994,0.124,,
-0.08428,0.124,,
-0.084259994,0.118,,
-0.08424,0.112,,
-0.08422,0.1,,
-0.084199994,0.094,,
-0.08418,0.09,,
-0.08416,0.088,,
-0.084139994,0.088,,
-0.08412,0.084,,
-0.0841,0.094,,
-0.084079994,0.082,,
-0.08406,0.09,,
-0.08404,0.088,,
-0.084019994,0.094,,
-0.084,0.104,,
-0.08398,0.092,,
-0.083959994,0.09,,
-0.08394,0.106,,
-0.083919994,0.106,,
-0.0839,0.114,,
-0.08388,0.106,,
-0.083859994,0.12,,
-0.08384,0.126,,
-0.08382,0.12,,
-0.083799994,0.128,,
-0.08378,0.13,,
-0.08376,0.154,,
-0.083739994,0.132,,
-0.08372,0.136,,
-0.0837,0.158,,
-0.083679994,0.142,,
-0.08366,0.164,,
-0.083639994,0.148,,
-0.08362,0.16,,
-0.0836,0.154,,
-0.083579994,0.14,,
-0.08356,0.16,,
-0.08354,0.152,,
-0.083519994,0.162,,
-0.0835,0.146,,
-0.08348,0.15,,
-0.083459994,0.16,,
-0.08344,0.138,,
-0.08342,0.156,,
-0.083399994,0.15,,
-0.08338,0.146,,
-0.08336,0.156,,
-0.083339994,0.136,,
-0.08332,0.158,,
-0.083299994,0.15,,
-0.08328,0.146,,
-0.08326,0.154,,
-0.083239994,0.138,,
-0.08322,0.154,,
-0.0832,0.146,,
-0.083179994,0.144,,
-0.08316,0.15,,
-0.08314,0.128,,
-0.083119994,0.162,,
-0.0831,0.132,,
-0.08308,0.14,,
-0.083059994,0.144,,
-0.08304,0.126,,
-0.083019994,0.15,,
-0.082999994,0.118,,
-0.08298,0.148,,
-0.082959994,0.14,,
-0.08294,0.122,,
-0.08292,0.15,,
-0.082899994,0.126,,
-0.08288,0.148,,
-0.08286,0.126,,
-0.082839994,0.13,,
-0.08282,0.276,,
-0.0828,0.208,,
-0.082779994,0.168,,
-0.08276,0.098,,
-0.08274,0.078,,
-0.082719994,0.088,,
-0.0827,0.076,,
-0.082679994,0.106,,
-0.08266,0.072,,
-0.08264,0.082,,
-0.082619994,0.094,,
-0.0826,0.074,,
-0.08258,0.094,,
-0.082559994,0.072,,
-0.08254,0.088,,
-0.08252,0.076,,
-0.082499994,0.066,,
-0.08248,0.042,,
-0.08246,0.006,,
-0.082439994,0.01,,
-0.08242,-0.002,,
-0.0824,0.008,,
-0.082379994,0.02,,
-0.08236,0.002,,
-0.082339994,0.028,,
-0.08232,0.024,,
-0.0823,0.034,,
-0.082279994,0.046,,
-0.08226,0.046,,
-0.08224,0.07,,
-0.082219994,0.074,,
-0.0822,0.084,,
-0.08218,0.084,,
-0.082159994,0.082,,
-0.08214,0.104,,
-0.08212,0.098,,
-0.082099994,0.112,,
-0.08208,0.12,,
-0.082059994,0.104,,
-0.08204,0.134,,
-0.08202,0.116,,
-0.081999994,0.134,,
-0.08198,0.146,,
-0.08196,0.124,,
-0.081939994,0.142,,
-0.08192,0.128,,
-0.0819,0.138,,
-0.081879994,0.12,,
-0.08186,0.116,,
-0.08184,0.126,,
-0.081819994,0.1,,
-0.0818,0.094,,
-0.08178,0.068,,
-0.081759994,0.058,,
-0.08174,0.058,,
-0.081719994,0.04,,
-0.0817,0.054,,
-0.08168,0.056,,
-0.081659994,0.084,,
-0.08164,0.114,,
-0.08162,0.136,,
-0.081599994,0.166,,
-0.08158,0.178,,
-0.08156,0.192,,
-0.081539994,0.192,,
-0.08152,0.176,,
-0.0815,0.17,,
-0.081479994,0.15,,
-0.08146,0.152,,
-0.081439994,0.138,,
-0.08142,0.126,,
-0.0814,0.126,,
-0.081379994,0.106,,
-0.08136,0.112,,
-0.08134,0.108,,
-0.081319994,0.102,,
-0.0813,0.114,,
-0.08128,0.116,,
-0.081259994,0.126,,
-0.08124,0.126,,
-0.08122,0.132,,
-0.081199994,0.138,,
-0.08118,0.148,,
-0.08116,0.148,,
-0.081139994,0.146,,
-0.08112,0.156,,
-0.081099994,0.156,,
-0.08108,0.154,,
-0.08106,0.16,,
-0.081039994,0.158,,
-0.08102,0.154,,
-0.081,0.16,,
-0.080979994,0.148,,
-0.08096,0.158,,
-0.08094,0.156,,
-0.080919994,0.162,,
-0.0809,0.17,,
-0.08088,0.156,,
-0.080859994,0.16,,
-0.08084,0.152,,
-0.08082,0.17,,
-0.080799994,0.158,,
-0.08078,0.152,,
-0.080759994,0.176,,
-0.08074,0.16,,
-0.08072,0.184,,
-0.080699994,0.162,,
-0.08068,0.182,,
-0.08066,0.18,,
-0.080639994,0.166,,
-0.08062,0.178,,
-0.0806,0.166,,
-0.080579994,0.17,,
-0.08056,0.154,,
-0.08054,0.172,,
-0.080519994,0.17,,
-0.0805,0.146,,
-0.080479994,0.162,,
-0.08046,0.158,,
-0.08044,0.172,,
-0.080419994,0.15,,
-0.0804,0.144,,
-0.08038,0.138,,
-0.080359994,0.142,,
-0.08034,0.138,,
-0.08032,0.14,,
-0.080299994,0.134,,
-0.08028,0.138,,
-0.08026,0.136,,
-0.080239994,0.126,,
-0.08022,0.13,,
-0.0802,0.122,,
-0.080179994,0.136,,
-0.08016,0.12,,
-0.080139994,0.112,,
-0.08012,0.136,,
-0.0801,0.122,,
-0.080079994,0.142,,
-0.08006,0.114,,
-0.08004,0.136,,
-0.080019994,0.132,,
-0.08,0.11,,
-0.07998,0.128,,
-0.079959994,0.11,,
-0.07994,0.118,,
-0.07992,0.096,,
-0.079899994,0.108,,
-0.07988,0.112,,
-0.079859994,0.092,,
-0.07984,0.102,,
-0.07982,0.092,,
-0.079799994,0.116,,
-0.07978,0.086,,
-0.07976,0.082,,
-0.079739994,0.1,,
-0.07972,0.094,,
-0.0797,0.096,,
-0.079679994,0.096,,
-0.07966,0.09,,
-0.07964,0.092,,
-0.079619994,0.094,,
-0.0796,0.094,,
-0.07958,0.094,,
-0.079559994,0.086,,
-0.07954,0.092,,
-0.079519994,0.088,,
-0.0795,0.086,,
-0.07948,0.092,,
-0.079459994,0.086,,
-0.07944,0.094,,
-0.07942,0.08,,
-0.079399994,0.086,,
-0.07938,0.088,,
-0.07936,0.074,,
-0.079339994,0.08,,
-0.07932,0.06,,
-0.0793,0.058,,
-0.079279994,0.05,,
-0.07926,0.056,,
-0.079239994,0.064,,
-0.07922,0.05,,
-0.0792,0.054,,
-0.079179994,0.046,,
-0.07916,0.056,,
-0.07914,0.046,,
-0.079119994,0.046,,
-0.0791,0.058,,
-0.07908,0.048,,
-0.079059994,0.046,,
-0.07904,0.028,,
-0.07902,0.03,,
-0.078999994,0.018,,
-0.07898,0.016,,
-0.07896,0.014,,
-0.078939994,0.01,,
-0.07892,0.014,,
-0.078899994,0.016,,
-0.07888,0.028,,
-0.07886,0.026,,
-0.078839994,0.03,,
-0.07882,0.032,,
-0.0788,0.036,,
-0.078779994,0.028,,
-0.07876,0.024,,
-0.07874,0.018,,
-0.078719994,0.012,,
-0.0787,0.01,,
-0.07868,0.01,,
-0.078659994,0.01,,
-0.07864,0.014,,
-0.07862,0.016,,
-0.078599994,0.02,,
-0.07858,0.016,,
-0.078559994,0.016,,
-0.07854,0.01,,
-0.07852,0.018,,
-0.078499994,0.014,,
-0.07848,0.016,,
-0.07846,0.016,,
-0.078439994,0.012,,
-0.07842,0.022,,
-0.0784,0.016,,
-0.078379994,0.018,,
-0.07836,0.014,,
-0.07834,0.018,,
-0.078319994,0.018,,
-0.0783,0.028,,
-0.078279994,0.038,,
-0.07826,0.014,,
-0.07824,0.028,,
-0.078219994,0.016,,
-0.0782,0.05,,
-0.07818,0.022,,
-0.078159994,0.028,,
-0.07814,0.028,,
-0.07812,0.03,,
-0.078099994,0.03,,
-0.07808,0.092,,
-0.07806,0.038,,
-0.078039994,0.11,,
-0.07802,0.086,,
-0.078,0.066,,
-0.077979994,0.082,,
-0.07796,0.062,,
-0.077939994,0.092,,
-0.07792,0.064,,
-0.0779,0.068,,
-0.077879994,0.086,,
-0.07786,0.062,,
-0.07784,0.092,,
-0.077819994,0.058,,
-0.0778,0.072,,
-0.07778,0.084,,
-0.077759994,0.05,,
-0.07774,0.082,,
-0.07772,0.066,,
-0.077699994,0.078,,
-0.07768,0.078,,
-0.077659994,0.068,,
-0.07764,0.078,,
-0.07762,0.062,,
-0.077599994,0.072,,
-0.07758,0.07,,
-0.07756,0.058,,
-0.077539994,0.078,,
-0.07752,0.058,,
-0.0775,0.076,,
-0.077479994,0.076,,
-0.07746,0.06,,
-0.07744,0.086,,
-0.077419994,0.054,,
-0.0774,0.074,,
-0.07738,0.08,,
-0.077359994,0.06,,
-0.07734,0.082,,
-0.077319994,0.052,,
-0.0773,0.09,,
-0.07728,0.064,,
-0.077259994,0.062,,
-0.07724,0.084,,
-0.07722,0.058,,
-0.077199994,0.084,,
-0.07718,0.05,,
-0.07716,0.07,,
-0.077139994,0.08,,
-0.07712,0.042,,
-0.0771,0.086,,
-0.077079994,0.054,,
-0.07706,0.074,,
-0.07704,0.066,,
-0.07702,0.056,,
-0.077,0.088,,
-0.076979994,0.048,,
-0.07696,0.07,,
-0.07694,0.072,,
-0.076919994,0.056,,
-0.0769,0.072,,
-0.07688,0.05,,
-0.076859994,0.09,,
-0.07684,0.058,,
-0.07682,0.06,,
-0.076799994,0.084,,
-0.07678,0.048,,
-0.07676,0.068,,
-0.076739994,0.054,,
-0.07672,0.062,,
-0.076699994,0.074,,
-0.07668,0.044,,
-0.07666,0.074,,
-0.076639994,0.06,,
-0.07662,0.066,,
-0.0766,0.058,,
-0.076579994,0.058,,
-0.07656,0.068,,
-0.07654,0.046,,
-0.076519994,0.064,,
-0.0765,0.066,,
-0.07648,0.056,,
-0.076459994,0.07,,
-0.07644,0.042,,
-0.07642,0.064,,
-0.0764,0.06,,
-0.07638,0.056,,
-0.076359994,0.058,,
-0.07634,0.05,,
-0.07632,0.064,,
-0.076299994,0.068,,
-0.07628,0.058,,
-0.07626,0.066,,
-0.076239994,0.05,,
-0.07622,0.084,,
-0.0762,0.06,,
-0.076179994,0.068,,
-0.07616,0.082,,
-0.07614,0.054,,
-0.076119994,0.07,,
-0.0761,0.048,,
-0.076079994,0.062,,
-0.07606,0.056,,
-0.07604,0.04,,
-0.076019994,0.056,,
-0.076,0.05,,
-0.07598,0.05,,
-0.075959994,0.042,,
-0.07594,0.052,,
-0.07592,0.06,,
-0.075899994,0.046,,
-0.07588,0.056,,
-0.07586,0.046,,
-0.075839994,0.056,,
-0.07582,0.058,,
-0.0758,0.042,,
-0.075779994,0.054,,
-0.07576,0.054,,
-0.075739994,0.05,,
-0.07572,0.052,,
-0.0757,0.05,,
-0.075679994,0.054,,
-0.07566,0.048,,
-0.07564,0.058,,
-0.075619994,0.046,,
-0.0756,0.056,,
-0.07558,0.056,,
-0.075559994,0.044,,
-0.07554,0.058,,
-0.07552,0.046,,
-0.075499994,0.05,,
-0.07548,0.054,,
-0.075459994,0.048,,
-0.07544,0.05,,
-0.07542,0.042,,
-0.075399994,0.042,,
-0.07538,0.044,,
-0.07536,0.044,,
-0.075339994,0.04,,
-0.07532,0.036,,
-0.0753,0.05,,
-0.075279994,0.05,,
-0.07526,0.042,,
-0.07524,0.05,,
-0.075219994,0.048,,
-0.0752,0.048,,
-0.07518,0.046,,
-0.075159994,0.03,,
-0.07514,0.046,,
-0.075119994,0.038,,
-0.0751,0.052,,
-0.07508,0.056,,
-0.075059994,0.04,,
-0.07504,0.048,,
-0.07502,0.046,,
-0.074999994,0.054,,
-0.07498,0.048,,
-0.07496,0.038,,
-0.074939994,0.05,,
-0.07492,0.038,,
-0.0749,0.06,,
-0.074879994,0.042,,
-0.07486,0.038,,
-0.07484,0.024,,
-0.07482,-0.006,,
-0.0748,0.002,,
-0.074779994,0.002,,
-0.07476,0.32,,
-0.07474,0.32,,
-0.074719994,0.042,,
-0.0747,0,,
-0.07468,-0.012,,
-0.074659994,0.014,,
-0.07464,0.008,,
-0.07462,0.016,,
-0.074599994,0.004,,
-0.07458,0.008,,
-0.07456,0.002,,
-0.074539994,0.01,,
-0.07452,-0.004,,
-0.074499994,0.014,,
-0.07448,-0.008,,
-0.07446,0,,
-0.074439994,0.02,,
-0.07442,-0.004,,
-0.0744,0.01,,
-0.074379994,-0.004,,
-0.07436,0.02,,
-0.07434,-0.006,,
-0.074319994,-0.016,,
-0.0743,0.012,,
-0.07428,-0.002,,
-0.074259994,0.024,,
-0.07424,-0.008,,
-0.07422,0.016,,
-0.0742,0.022,,
-0.07418,-0.004,,
-0.074159994,0.012,,
-0.07414,-0.004,,
-0.07412,0.008,,
-0.074099994,-0.004,,
-0.07408,0.01,,
-0.07406,0.014,,
-0.074039994,-0.004,,
-0.07402,0.008,,
-0.074,0.008,,
-0.073979994,0.026,,
-0.07396,0.004,,
-0.07394,-0.006,,
-0.073919994,0.012,,
-0.0739,0.004,,
-0.073879994,0,,
-0.07386,0.002,,
-0.07384,-0.006,,
-0.073819994,0.002,,
-0.0738,0.018,,
-0.07378,0.004,,
-0.073759994,0.012,,
-0.07374,-0.006,,
-0.07372,0.012,,
-0.073699994,0.004,,
-0.07368,0,,
-0.07366,0.014,,
-0.073639994,0.002,,
-0.07362,0.012,,
-0.0736,-0.008,,
-0.073579994,0.012,,
-0.07356,0.02,,
-0.073539994,-0.002,,
-0.07352,0.01,,
-0.0735,-0.004,,
-0.073479994,0.012,,
-0.07346,0.004,,
-0.07344,0.006,,
-0.073419994,0.014,,
-0.0734,0.01,,
-0.07338,0.012,,
-0.073359994,0.004,,
-0.07334,0.006,,
-0.07332,-0.002,,
-0.073299994,-0.008,,
-0.07328,0.02,,
-0.07326,-0.008,,
-0.07324,0.028,,
-0.07322,-0.01,,
-0.073199994,0.024,,
-0.07318,0.006,,
-0.07316,0,,
-0.073139994,0.016,,
-0.07312,0.006,,
-0.0731,-0.006,,
-0.073079994,0.004,,
-0.07306,0.002,,
-0.07304,-0.004,,
-0.073019994,0.002,,
-0.073,0.004,,
-0.07298,0.016,,
-0.072959994,0.006,,
-0.07294,0.012,,
-0.072919994,0.006,,
-0.0729,-0.004,,
-0.07288,0.006,,
-0.072859994,-0.014,,
-0.07284,0.01,,
-0.07282,-0.002,,
-0.072799994,0.008,,
-0.07278,0.018,,
-0.07276,0.006,,
-0.072739994,0.008,,
-0.07272,-0.014,,
-0.0727,0.014,,
-0.072679994,0,,
-0.07266,0.002,,
-0.07264,0.012,,
-0.07262,-0.01,,
-0.0726,0.026,,
-0.072579994,0.006,,
-0.07256,0.006,,
-0.07254,0.012,,
-0.072519994,0.002,,
-0.0725,0.016,,
-0.07248,-0.004,,
-0.072459994,0.004,,
-0.07244,0.004,,
-0.07242,0.002,,
-0.072399994,0.008,,
-0.07238,-0.012,,
-0.07236,0.014,,
-0.072339994,0,,
-0.07232,-0.016,,
-0.072299994,0.01,,
-0.07228,-0.012,,
-0.07226,0.026,,
-0.072239994,-0.006,,
-0.07222,0.004,,
-0.0722,0.032,,
-0.072179994,-0.008,,
-0.07216,0.016,,
-0.07214,0,,
-0.072119994,0.018,,
-0.0721,0.006,,
-0.07208,-0.01,,
-0.072059994,0.022,,
-0.07204,-0.004,,
-0.07202,0.008,,
-0.072,0.002,,
-0.07198,-0.004,,
-0.071959994,0.026,,
-0.07194,0,,
-0.07192,0.008,,
-0.071899994,0.014,,
-0.07188,-0.008,,
-0.07186,0.018,,
-0.071839994,-0.008,,
-0.07182,-0.004,,
-0.0718,0.01,,
-0.071779994,-0.006,,
-0.07176,0.012,,
-0.07174,-0.022,,
-0.071719994,0.014,,
-0.0717,0.006,,
-0.07168,-0.016,,
-0.07166,0.018,,
-0.07164,-0.014,,
-0.071619994,0.034,,
-0.0716,-0.002,,
-0.07158,0.002,,
-0.071559994,0.032,,
-0.07154,-0.012,,
-0.07152,0.02,,
-0.071499994,-0.002,,
-0.07148,0.004,,
-0.07146,0.012,,
-0.071439994,-0.02,,
-0.07142,0.026,,
-0.0714,-0.002,,
-0.071379994,0.01,,
-0.07136,0.008,,
-0.071339994,-0.008,,
-0.07132,0.022,,
-0.0713,-0.01,,
-0.071279994,0.01,,
-0.07126,0.01,,
-0.07124,-0.012,,
-0.071219994,0.016,,
-0.0712,-0.012,,
-0.07118,0.02,,
-0.071159994,0,,
-0.07114,-0.002,,
-0.07112,0.028,,
-0.071099994,-0.018,,
-0.07108,0.012,,
-0.07106,-0.004,,
-0.07104,0.006,,
-0.07102,0.01,,
-0.070999994,-0.012,,
-0.07098,0.036,,
-0.07096,-0.008,,
-0.070939994,0.008,,
-0.07092,0.012,,
-0.0709,-0.016,,
-0.070879994,0.026,,
-0.07086,-0.002,,
-0.07084,0.01,,
-0.070819994,0.012,,
-0.0708,-0.008,,
-0.07078,0.024,,
-0.070759994,0,,
-0.07074,-0.002,,
-0.070719994,0.01,,
-0.0707,-0.004,,
-0.07068,0.02,,
-0.070659994,-0.01,,
-0.07064,0.01,,
-0.07062,0.01,,
-0.070599994,-0.006,,
-0.07058,0.012,,
-0.07056,-0.006,,
-0.070539994,0.01,,
-0.07052,-0.002,,
-0.0705,0,,
-0.070479994,0.024,,
-0.07046,-0.002,,
-0.07044,0.004,,
-0.07042,-0.002,,
-0.0704,0.016,,
-0.070379994,0.004,,
-0.07036,-0.004,,
-0.07034,0.018,,
-0.070319994,0.002,,
-0.0703,0.01,,
-0.07028,0.006,,
-0.070259994,0.002,,
-0.07024,0.016,,
-0.07022,0.004,,
-0.070199994,0.004,,
-0.07018,0.006,,
-0.07016,0.008,,
-0.070139994,0.014,,
-0.07012,-0.002,,
-0.070099994,0.002,,
-0.07008,0.004,,
-0.07006,0.004,,
-0.070039994,0.008,,
-0.07002,-0.002,,
-0.07,0.012,,
-0.069979994,0.006,,
-0.06996,0.004,,
-0.06994,0.01,,
-0.069919994,0,,
-0.0699,0.012,,
-0.06988,0.002,,
-0.069859994,0.002,,
-0.06984,0.01,,
-0.06982,0.006,,
-0.0698,0.008,,
-0.06978,0.008,,
-0.069759994,0.01,,
-0.06974,0.006,,
-0.06972,0.004,,
-0.069699994,0.012,,
-0.06968,0.012,,
-0.06966,0.008,,
-0.069639994,0.008,,
-0.06962,0.01,,
-0.0696,0.018,,
-0.069579994,0.008,,
-0.06956,0.016,,
-0.06954,0.012,,
-0.069519994,0.006,,
-0.0695,0.012,,
-0.06948,0.004,,
-0.06946,0.016,,
-0.06944,0.006,,
-0.069419994,0.014,,
-0.0694,0.014,,
-0.06938,0.002,,
-0.069359994,0.016,,
-0.06934,0.008,,
-0.06932,0.018,,
-0.069299994,0.012,,
-0.06928,0.004,,
-0.06926,0.014,,
-0.069239994,0.006,,
-0.06922,0.014,,
-0.0692,0.016,,
-0.069179994,0.014,,
-0.06916,0.014,,
-0.069139994,0.014,,
-0.06912,0.014,,
-0.0691,0.014,,
-0.069079994,0.01,,
-0.06906,0.012,,
-0.06904,0.01,,
-0.069019994,0.008,,
-0.069,0.014,,
-0.06898,0.01,,
-0.068959994,0.022,,
-0.06894,0.012,,
-0.06892,0.012,,
-0.068899994,0.018,,
-0.06888,0.006,,
-0.06886,0.022,,
-0.06884,0.01,,
-0.06882,0.022,,
-0.068799994,0.01,,
-0.06878,0.018,,
-0.06876,0.026,,
-0.068739994,0.014,,
-0.06872,0.02,,
-0.0687,0.016,,
-0.068679994,0.03,,
-0.06866,0.012,,
-0.06864,0.01,,
-0.068619994,0.032,,
-0.0686,0.02,,
-0.06858,0.032,,
-0.068559994,0.02,,
-0.06854,0.032,,
-0.068519994,0.026,,
-0.0685,0.032,,
-0.06848,0.04,,
-0.068459994,0.038,,
-0.06844,0.032,,
-0.06842,0.034,,
-0.068399994,0.04,,
-0.06838,0.046,,
-0.06836,0.046,,
-0.068339994,0.048,,
-0.06832,0.056,,
-0.0683,0.05,,
-0.068279994,0.058,,
-0.06826,0.06,,
-0.06824,0.044,,
-0.06822,0.056,,
-0.0682,0.04,,
-0.068179994,0.056,,
-0.06816,0.042,,
-0.06814,0.056,,
-0.068119994,0.064,,
-0.0681,0.048,,
-0.06808,0.05,,
-0.068059994,0.046,,
-0.06804,0.064,,
-0.06802,0.046,,
-0.067999994,0.042,,
-0.06798,0.064,,
-0.06796,0.048,,
-0.067939994,0.06,,
-0.06792,0.038,,
-0.0679,0.054,,
-0.06788,0.042,,
-0.06786,0.034,,
-0.067839994,0.038,,
-0.06782,0.028,,
-0.0678,0.04,,
-0.067779994,0.042,,
-0.06776,0.068,,
-0.06774,0.086,,
-0.067719994,0.082,,
-0.0677,0.106,,
-0.06768,0.116,,
-0.067659994,0.136,,
-0.06764,0.124,,
-0.06762,0.124,,
-0.0676,0.108,,
-0.06758,0.106,,
-0.067559994,0.094,,
-0.06754,0.102,,
-0.06752,0.092,,
-0.067499994,0.094,,
-0.06748,0.094,,
-0.06746,0.08,,
-0.067439994,0.086,,
-0.06742,0.078,,
-0.0674,0.092,,
-0.067379994,0.084,,
-0.06736,0.078,,
-0.06734,0.102,,
-0.067319994,0.098,,
-0.0673,0.118,,
-0.06728,0.104,,
-0.06726,0.118,,
-0.06724,0.116,,
-0.067219994,0.112,,
-0.0672,0.124,,
-0.06718,0.12,,
-0.067159994,0.13,,
-0.06714,0.122,,
-0.06712,0.136,,
-0.067099994,0.14,,
-0.06708,0.136,,
-0.06706,0.15,,
-0.067039994,0.144,,
-0.06702,0.154,,
-0.067,0.146,,
-0.066979994,0.148,,
-0.06696,0.152,,
-0.066939994,0.144,,
-0.06692,0.152,,
-0.0669,0.15,,
-0.066879994,0.15,,
-0.06686,0.156,,
-0.06684,0.154,,
-0.066819994,0.154,,
-0.0668,0.154,,
-0.06678,0.14,,
-0.066759994,0.154,,
-0.06674,0.15,,
-0.06672,0.15,,
-0.066699994,0.148,,
-0.06668,0.152,,
-0.06666,0.168,,
-0.06664,0.148,,
-0.06662,0.152,,
-0.066599994,0.156,,
-0.06658,0.152,,
-0.06656,0.158,,
-0.066539994,0.144,,
-0.06652,0.146,,
-0.0665,0.142,,
-0.066479994,0.144,,
-0.06646,0.14,,
-0.06644,0.136,,
-0.066419994,0.14,,
-0.0664,0.128,,
-0.06638,0.132,,
-0.066359994,0.138,,
-0.06634,0.128,,
-0.066319994,0.148,,
-0.0663,0.128,,
-0.06628,0.14,,
-0.066259994,0.152,,
-0.06624,0.124,,
-0.06622,0.14,,
-0.066199994,0.13,,
-0.06618,0.144,,
-0.06616,0.208,,
-0.066139994,0.088,,
-0.06612,0.16,,
-0.0661,0.102,,
-0.066079994,0.096,,
-0.06606,0.074,,
-0.06604,0.088,,
-0.06602,0.1,,
-0.066,0.076,,
-0.065979994,0.094,,
-0.06596,0.082,,
-0.06594,0.088,,
-0.065919994,0.08,,
-0.0659,0.074,,
-0.06588,0.092,,
-0.065859994,0.078,,
-0.06584,0.08,,
-0.06582,0.026,,
-0.065799994,0.006,,
-0.06578,0.004,,
-0.06576,0,,
-0.065739994,0.02,,
-0.06572,0.01,,
-0.0657,0.008,,
-0.06568,0.028,,
-0.06566,0.016,,
-0.065639994,0.038,,
-0.06562,0.046,,
-0.0656,0.05,,
-0.065579994,0.072,,
-0.06556,0.06,,
-0.06554,0.092,,
-0.065519994,0.082,,
-0.0655,0.086,,
-0.06548,0.11,,
-0.065459994,0.1,,
-0.06544,0.124,,
-0.06542,0.102,,
-0.0654,0.124,,
-0.06538,0.128,,
-0.065359994,0.114,,
-0.06534,0.144,,
-0.06532,0.12,,
-0.065299994,0.138,,
-0.06528,0.13,,
-0.06526,0.124,,
-0.065239994,0.148,,
-0.06522,0.114,,
-0.0652,0.124,,
-0.065179994,0.118,,
-0.06516,0.096,,
-0.06514,0.092,,
-0.065119994,0.064,,
-0.0651,0.078,,
-0.06508,0.046,,
-0.06506,0.044,,
-0.06504,0.06,,
-0.065019994,0.054,,
-0.065,0.1,,
-0.06498,0.102,,
-0.064959994,0.146,,
-0.06494,0.17,,
-0.06492,0.162,,
-0.064899994,0.206,,
-0.06488,0.18,,
-0.06486,0.192,,
-0.064839994,0.16,,
-0.06482,0.158,,
-0.0648,0.164,,
-0.064779994,0.126,,
-0.06476,0.132,,
-0.064739994,0.116,,
-0.06472,0.106,,
-0.0647,0.106,,
-0.064679994,0.09,,
-0.06466,0.106,,
-0.06464,0.106,,
-0.064619994,0.104,,
-0.0646,0.118,,
-0.06458,0.118,,
-0.064559994,0.142,,
-0.06454,0.146,,
-0.06452,0.142,,
-0.064499994,0.146,,
-0.06448,0.146,,
-0.06446,0.166,,
-0.06444,0.144,,
-0.06442,0.16,,
-0.064399994,0.164,,
-0.06438,0.152,,
-0.06436,0.17,,
-0.064339994,0.15,,
-0.06432,0.166,,
-0.0643,0.164,,
-0.064279994,0.152,,
-0.06426,0.168,,
-0.06424,0.156,,
-0.064219994,0.162,,
-0.0642,0.152,,
-0.06418,0.166,,
-0.064159994,0.172,,
-0.06414,0.16,,
-0.06412,0.168,,
-0.0641,0.162,,
-0.06408,0.174,,
-0.064059994,0.17,,
-0.06404,0.156,,
-0.06402,0.174,,
-0.063999994,0.168,,
-0.06398,0.172,,
-0.06396,0.174,,
-0.063939994,0.168,,
-0.06392,0.176,,
-0.0639,0.164,,
-0.063879994,0.168,,
-0.06386,0.158,,
-0.06384,0.154,,
-0.06382,0.168,,
-0.0638,0.152,,
-0.063779994,0.16,,
-0.06376,0.144,,
-0.06374,0.15,,
-0.063719994,0.152,,
-0.0637,0.14,,
-0.06368,0.148,,
-0.063659994,0.136,,
-0.06364,0.134,,
-0.06362,0.13,,
-0.063599994,0.132,,
-0.06358,0.128,,
-0.06356,0.126,,
-0.063539994,0.13,,
-0.06352,0.132,,
-0.0635,0.126,,
-0.06348,0.124,,
-0.06346,0.136,,
-0.063439994,0.128,,
-0.06342,0.13,,
-0.0634,0.112,,
-0.063379994,0.124,,
-0.06336,0.116,,
-0.06334,0.12,,
-0.063319994,0.128,,
-0.0633,0.114,,
-0.06328,0.122,,
-0.063259994,0.106,,
-0.06324,0.116,,
-0.06322,0.102,,
-0.0632,0.094,,
-0.06318,0.106,,
-0.063159994,0.094,,
-0.06314,0.1,,
-0.06312,0.086,,
-0.063099994,0.1,,
-0.06308,0.108,,
-0.06306,0.086,,
-0.063039994,0.092,,
-0.06302,0.086,,
-0.063,0.098,,
-0.062979994,0.088,,
-0.06296,0.09,,
-0.06294,0.092,,
-0.062919994,0.084,,
-0.0629,0.092,,
-0.06288,0.094,,
-0.06286,0.098,,
-0.06284,0.082,,
-0.062819994,0.086,,
-0.0628,0.082,,
-0.06278,0.082,,
-0.062759994,0.076,,
-0.06274,0.076,,
-0.06272,0.08,,
-0.062699994,0.06,,
-0.06268,0.06,,
-0.06266,0.05,,
-0.062639994,0.058,,
-0.06262,0.054,,
-0.0626,0.054,,
-0.06258,0.052,,
-0.06256,0.048,,
-0.062539994,0.052,,
-0.06252,0.056,,
-0.0625,0.058,,
-0.06248,0.05,,
-0.06246,0.056,,
-0.062439994,0.054,,
-0.06242,0.036,,
-0.0624,0.044,,
-0.06238,0.026,,
-0.06236,0.036,,
-0.06234,0.012,,
-0.06232,0.012,,
-0.062299994,0.02,,
-0.06228,0.01,,
-0.06226,0.02,,
-0.06224,0.02,,
-0.06222,0.032,,
-0.0622,0.022,,
-0.06218,0.028,,
-0.06216,0.038,,
-0.06214,0.03,,
-0.06212,0.026,,
-0.0621,0.01,,
-0.06208,0.018,,
-0.06206,0.02,,
-0.06204,0.016,,
-0.06202,0.018,,
-0.062,0.014,,
-0.06198,0.016,,
-0.061959994,0.014,,
-0.06194,0.024,,
-0.06192,0.018,,
-0.0619,0.014,,
-0.06188,0.016,,
-0.06186,0.02,,
-0.06184,0.032,,
-0.061819994,0.022,,
-0.0618,0.022,,
-0.06178,0.014,,
-0.06176,0.016,,
-0.06174,0.014,,
-0.06172,0.026,,
-0.0617,0.016,,
-0.06168,0.1,,
-0.06166,0.024,,
-0.06164,0.052,,
-0.06162,0.024,,
-0.0616,0.056,,
-0.06158,0.098,,
-0.06156,0.044,,
-0.06154,0.046,,
-0.06152,0.072,,
-0.0615,0.046,,
-0.06148,0.118,,
-0.06146,0.096,,
-0.06144,0.082,,
-0.06142,0.082,,
-0.0614,0.06,,
-0.06138,0.078,,
-0.06136,0.066,,
-0.061339994,0.066,,
-0.06132,0.072,,
-0.0613,0.062,,
-0.06128,0.074,,
-0.06126,0.064,,
-0.06124,0.072,,
-0.06122,0.082,,
-0.061199994,0.07,,
-0.06118,0.072,,
-0.06116,0.074,,
-0.06114,0.076,,
-0.06112,0.078,,
-0.0611,0.064,,
-0.06108,0.074,,
-0.06106,0.068,,
-0.06104,0.07,,
-0.06102,0.08,,
-0.061,0.074,,
-0.06098,0.08,,
-0.06096,0.064,,
-0.06094,0.072,,
-0.06092,0.072,,
-0.0609,0.064,,
-0.06088,0.072,,
-0.060859994,0.066,,
-0.06084,0.078,,
-0.06082,0.062,,
-0.0608,0.07,,
-0.06078,0.07,,
-0.06076,0.064,,
-0.06074,0.072,,
-0.060719994,0.06,,
-0.0607,0.054,,
-0.06068,0.078,,
-0.06066,0.058,,
-0.06064,0.07,,
-0.06062,0.066,,
-0.0606,0.064,,
-0.06058,0.074,,
-0.06056,0.06,,
-0.06054,0.072,,
-0.06052,0.072,,
-0.0605,0.076,,
-0.06048,0.066,,
-0.06046,0.064,,
-0.06044,0.082,,
-0.06042,0.062,,
-0.0604,0.076,,
-0.06038,0.064,,
-0.06036,0.072,,
-0.06034,0.074,,
-0.06032,0.056,,
-0.0603,0.07,,
-0.06028,0.07,,
-0.06026,0.07,,
-0.060239994,0.056,,
-0.06022,0.07,,
-0.0602,0.064,,
-0.06018,0.054,,
-0.06016,0.07,,
-0.06014,0.054,,
-0.06012,0.068,,
-0.060099994,0.058,,
-0.06008,0.054,,
-0.06006,0.07,,
-0.06004,0.058,,
-0.06002,0.058,,
-0.06,0.056,,
-0.05998,0.056,,
-0.05996,0.07,,
-0.05994,0.058,,
-0.05992,0.07,,
-0.0599,0.058,,
-0.05988,0.054,,
-0.05986,0.076,,
-0.05984,0.048,,
-0.05982,0.074,,
-0.0598,0.058,,
-0.05978,0.056,,
-0.059759994,0.076,,
-0.05974,0.044,,
-0.05972,0.074,,
-0.0597,0.058,,
-0.05968,0.052,,
-0.05966,0.072,,
-0.05964,0.054,,
-0.059619994,0.08,,
-0.0596,0.046,,
-0.05958,0.066,,
-0.05956,0.076,,
-0.05954,0.048,,
-0.05952,0.076,,
-0.0595,0.06,,
-0.05948,0.07,,
-0.05946,0.064,,
-0.05944,0.046,,
-0.05942,0.07,,
-0.0594,0.04,,
-0.05938,0.052,,
-0.05936,0.05,,
-0.05934,0.044,,
-0.05932,0.058,,
-0.0593,0.036,,
-0.05928,0.07,,
-0.05926,0.048,,
-0.05924,0.042,,
-0.05922,0.07,,
-0.0592,0.04,,
-0.05918,0.072,,
-0.05916,0.038,,
-0.059139994,0.06,,
-0.05912,0.068,,
-0.0591,0.034,,
-0.05908,0.068,,
-0.05906,0.048,,
-0.05904,0.06,,
-0.05902,0.052,,
-0.059,0.042,,
-0.05898,0.064,,
-0.05896,0.04,,
-0.05894,0.052,,
-0.05892,0.046,,
-0.0589,0.048,,
-0.05888,0.052,,
-0.05886,0.034,,
-0.05884,0.056,,
-0.05882,0.05,,
-0.0588,0.038,,
-0.05878,0.056,,
-0.05876,0.034,,
-0.05874,0.054,,
-0.05872,0.062,,
-0.0587,0.036,,
-0.05868,0.052,,
-0.058659994,0.042,,
-0.05864,0.054,,
-0.05862,0.04,,
-0.0586,0.036,,
-0.05858,0.05,,
-0.05856,0.034,,
-0.05854,0.048,,
-0.058519994,0.03,,
-0.0585,0.05,,
-0.05848,0.044,,
-0.05846,0.032,,
-0.05844,0.05,,
-0.05842,0.036,,
-0.0584,0.046,,
-0.05838,0.044,,
-0.05836,0.032,,
-0.05834,0.048,,
-0.05832,0.044,,
-0.0583,0.046,,
-0.05828,0.048,,
-0.05826,0.05,,
-0.05824,0.052,,
-0.05822,0.04,,
-0.0582,0.056,,
-0.05818,0.048,,
-0.05816,0.05,,
-0.05814,0.06,,
-0.05812,0.054,,
-0.0581,-0.188,,
-0.05808,0.038,,
-0.05806,0.02,,
-0.058039994,0.02,,
-0.05802,0.008,,
-0.058,0.016,,
-0.05798,0,,
-0.05796,0.002,,
-0.05794,0.002,,
-0.05792,0.008,,
-0.0579,0.006,,
-0.05788,0,,
-0.05786,0.008,,
-0.05784,0.01,,
-0.05782,0.002,,
-0.0578,0.004,,
-0.05778,0.002,,
-0.05776,-0.004,,
-0.05774,0.006,,
-0.05772,0,,
-0.0577,0.008,,
-0.05768,0.002,,
-0.05766,0.006,,
-0.05764,0.018,,
-0.05762,0.008,,
-0.0576,0.006,,
-0.05758,-0.006,,
-0.057559994,0.01,,
-0.05754,-0.002,,
-0.05752,-0.008,,
-0.0575,0.012,,
-0.05748,-0.006,,
-0.05746,0.024,,
-0.05744,0,,
-0.057419994,0.014,,
-0.0574,0.006,,
-0.05738,-0.002,,
-0.05736,0.016,,
-0.05734,0.002,,
-0.05732,0.01,,
-0.0573,0.012,,
-0.05728,0.006,,
-0.05726,0.02,,
-0.05724,-0.004,,
-0.05722,0.014,,
-0.0572,0.002,,
-0.05718,0.018,,
-0.05716,0.002,,
-0.05714,0.002,,
-0.05712,-0.006,,
-0.0571,0.002,,
-0.05708,0.008,,
-0.05706,0.01,,
-0.05704,0.008,,
-0.05702,0.012,,
-0.057,0.014,,
-0.05698,-0.002,,
-0.05696,0.002,,
-0.056939994,-0.006,,
-0.05692,0.01,,
-0.0569,-0.004,,
-0.05688,-0.004,,
-0.05686,0.012,,
-0.05684,-0.002,,
-0.05682,0.02,,
-0.0568,0,,
-0.05678,0.02,,
-0.05676,0.014,,
-0.05674,0.006,,
-0.05672,0.014,,
-0.0567,-0.002,,
-0.05668,0,,
-0.05666,-0.016,,
-0.05664,0.018,,
-0.05662,0.022,,
-0.0566,-0.018,,
-0.05658,0.016,,
-0.05656,-0.018,,
-0.05654,0.036,,
-0.05652,-0.018,,
-0.0565,-0.006,,
-0.05648,0.026,,
-0.056459994,-0.006,,
-0.05644,0.012,,
-0.05642,0.006,,
-0.0564,0.02,,
-0.05638,0.002,,
-0.05636,0.004,,
-0.05634,0.01,,
-0.05632,0.002,,
-0.0563,-0.006,,
-0.05628,-0.002,,
-0.05626,0.008,,
-0.05624,0.016,,
-0.05622,0.002,,
-0.0562,0.002,,
-0.05618,0.012,,
-0.05616,0,,
-0.05614,0.006,,
-0.05612,0.004,,
-0.0561,-0.014,,
-0.05608,0.006,,
-0.05606,-0.004,,
-0.05604,0.016,,
-0.05602,-0.004,,
-0.056,0.014,,
-0.05598,0.016,,
-0.05596,-0.006,,
-0.05594,0.008,,
-0.05592,-0.022,,
-0.0559,0.022,,
-0.05588,-0.018,,
-0.05586,0,,
-0.055839994,0.024,,
-0.05582,-0.01,,
-0.0558,0.02,,
-0.05578,-0.012,,
-0.05576,0.024,,
-0.05574,-0.002,,
-0.05572,-0.01,,
-0.0557,0.014,,
-0.05568,-0.004,,
-0.05566,0.018,,
-0.05564,-0.014,,
-0.05562,0.018,,
-0.0556,0.008,,
-0.05558,-0.012,,
-0.05556,0.016,,
-0.05554,0,,
-0.05552,0.002,,
-0.0555,-0.004,,
-0.05548,0,,
-0.05546,0,,
-0.05544,-0.002,,
-0.05542,0.002,,
-0.0554,0.01,,
-0.05538,0.004,,
-0.055359994,0.008,,
-0.05534,0.012,,
-0.05532,0.012,,
-0.0553,0.006,,
-0.05528,-0.016,,
-0.05526,0.01,,
-0.05524,-0.002,,
-0.05522,0.006,,
-0.0552,0.014,,
-0.05518,0.002,,
-0.05516,0.018,,
-0.05514,0,,
-0.05512,0.01,,
-0.0551,0.006,,
-0.05508,0,,
-0.05506,0.012,,
-0.05504,0,,
-0.05502,0.01,,
-0.055,0,,
-0.05498,0.002,,
-0.05496,0.002,,
-0.05494,-0.006,,
-0.05492,0.014,,
-0.0549,0.002,,
-0.05488,-0.008,,
-0.05486,0.008,,
-0.05484,-0.008,,
-0.05482,0.008,,
-0.0548,-0.008,,
-0.05478,0.004,,
-0.05476,0.012,,
-0.054739994,-0.004,,
-0.05472,0.004,,
-0.0547,-0.006,,
-0.05468,0.028,,
-0.05466,0.002,,
-0.05464,-0.008,,
-0.05462,0.016,,
-0.0546,-0.002,,
-0.05458,0.022,,
-0.05456,-0.002,,
-0.05454,0,,
-0.05452,0.026,,
-0.0545,-0.002,,
-0.05448,0.008,,
-0.05446,0.008,,
-0.05444,0.002,,
-0.05442,0.008,,
-0.0544,-0.006,,
-0.05438,0.008,,
-0.05436,-0.002,,
-0.05434,-0.002,,
-0.05432,0.01,,
-0.0543,-0.012,,
-0.05428,0.016,,
-0.054259994,-0.004,,
-0.05424,-0.002,,
-0.05422,0.012,,
-0.0542,-0.014,,
-0.05418,0.024,,
-0.05416,-0.012,,
-0.05414,0.008,,
-0.05412,0.022,,
-0.0541,-0.01,,
-0.05408,0.012,,
-0.05406,-0.01,,
-0.05404,0.022,,
-0.05402,0.002,,
-0.054,-0.002,,
-0.05398,0.024,,
-0.05396,-0.002,,
-0.05394,0.01,,
-0.05392,0,,
-0.0539,-0.002,,
-0.05388,0.02,,
-0.05386,-0.014,,
-0.05384,0.018,,
-0.05382,0.004,,
-0.0538,-0.002,,
-0.05378,0.016,,
-0.05376,-0.004,,
-0.05374,0.026,,
-0.05372,0,,
-0.0537,0.006,,
-0.05368,0.02,,
-0.05366,-0.008,,
-0.053639994,0.014,,
-0.05362,0,,
-0.0536,0.012,,
-0.05358,0.008,,
-0.05356,-0.006,,
-0.05354,0.024,,
-0.05352,-0.002,,
-0.0535,0.004,,
-0.05348,0.01,,
-0.05346,0,,
-0.05344,0.014,,
-0.05342,-0.002,,
-0.0534,0.016,,
-0.05338,0.006,,
-0.05336,0,,
-0.05334,0.02,,
-0.05332,-0.002,,
-0.0533,0.012,,
-0.05328,0.004,,
-0.05326,0.004,,
-0.05324,0.016,,
-0.05322,-0.006,,
-0.0532,0.014,,
-0.05318,0.002,,
-0.053159994,0,,
-0.05314,0.014,,
-0.05312,0.002,,
-0.0531,0.016,,
-0.05308,0,,
-0.05306,0.012,,
-0.05304,0.016,,
-0.05302,0,,
-0.053,0.014,,
-0.05298,0,,
-0.05296,0.022,,
-0.05294,0.008,,
-0.05292,0.002,,
-0.0529,0.022,,
-0.05288,0.004,,
-0.05286,0.012,,
-0.05284,0.008,,
-0.05282,0.012,,
-0.0528,0.018,,
-0.05278,0.008,,
-0.05276,0.014,,
-0.05274,0.012,,
-0.05272,0.012,,
-0.0527,0.014,,
-0.05268,0.01,,
-0.05266,0.014,,
-0.05264,0.008,,
-0.05262,0.01,,
-0.0526,0.014,,
-0.05258,0.01,,
-0.05256,0.018,,
-0.05254,0.006,,
-0.05252,0.004,,
-0.0525,0.012,,
-0.05248,0.008,,
-0.05246,0.012,,
-0.05244,0.008,,
-0.052419997,0.014,,
-0.0524,0.014,,
-0.05238,0.012,,
-0.052359997,0.012,,
-0.052339997,0.016,,
-0.05232,0.02,,
-0.0523,0.008,,
-0.052279997,0.01,,
-0.05226,0.014,,
-0.05224,0.014,,
-0.052219997,0.02,,
-0.052199997,0.016,,
-0.05218,0.016,,
-0.05216,0.02,,
-0.052139997,0.014,,
-0.05212,0.02,,
-0.0521,0.016,,
-0.052079997,0.014,,
-0.052059997,0.018,,
-0.05204,0.02,,
-0.052019997,0.026,,
-0.051999997,0.016,,
-0.05198,0.026,,
-0.05196,0.028,,
-0.051939997,0.016,,
-0.05192,0.028,,
-0.0519,0.016,,
-0.051879997,0.03,,
-0.051859997,0.028,,
-0.05184,0.028,,
-0.05182,0.032,,
-0.051799997,0.032,,
-0.05178,0.038,,
-0.05176,0.04,,
-0.051739997,0.05,,
-0.051719997,0.042,,
-0.0517,0.046,,
-0.05168,0.05,,
-0.051659997,0.046,,
-0.05164,0.052,,
-0.05162,0.042,,
-0.051599997,0.052,,
-0.051579997,0.05,,
-0.05156,0.05,,
-0.05154,0.05,,
-0.051519997,0.054,,
-0.0515,0.05,,
-0.05148,0.052,,
-0.051459997,0.05,,
-0.05144,0.046,,
-0.05142,0.052,,
-0.051399997,0.054,,
-0.051379997,0.064,,
-0.05136,0.048,,
-0.05134,0.062,,
-0.051319997,0.064,,
-0.0513,0.05,,
-0.05128,0.062,,
-0.051259997,0.038,,
-0.051239997,0.058,,
-0.05122,0.032,,
-0.0512,0.03,,
-0.051179997,0.038,,
-0.05116,0.026,,
-0.05114,0.048,,
-0.051119997,0.046,,
-0.051099997,0.074,,
-0.05108,0.07,,
-0.05106,0.08,,
-0.051039997,0.112,,
-0.05102,0.108,,
-0.051,0.128,,
-0.050979997,0.104,,
-0.050959997,0.126,,
-0.05094,0.126,,
-0.050919997,0.102,,
-0.050899997,0.1,,
-0.05088,0.092,,
-0.05086,0.088,,
-0.050839997,0.086,,
-0.05082,0.084,,
-0.0508,0.08,,
-0.050779997,0.086,,
-0.050759997,0.09,,
-0.05074,0.096,,
-0.05072,0.096,,
-0.050699997,0.098,,
-0.05068,0.11,,
-0.05066,0.1,,
-0.050639997,0.108,,
-0.050619997,0.096,,
-0.0506,0.118,,
-0.05058,0.104,,
-0.050559997,0.11,,
-0.05054,0.132,,
-0.05052,0.112,,
-0.050499997,0.128,,
-0.050479997,0.118,,
-0.05046,0.144,,
-0.05044,0.134,,
-0.050419997,0.124,,
-0.0504,0.154,,
-0.05038,0.138,,
-0.050359997,0.154,,
-0.05034,0.136,,
-0.05032,0.164,,
-0.050299997,0.174,,
-0.050279997,0.144,,
-0.05026,0.158,,
-0.05024,0.142,,
-0.050219997,0.156,,
-0.0502,0.146,,
-0.05018,0.154,,
-0.050159997,0.154,,
-0.050139997,0.148,,
-0.05012,0.154,,
-0.0501,0.158,,
-0.050079997,0.16,,
-0.05006,0.148,,
-0.05004,0.16,,
-0.050019997,0.154,,
-0.049999997,0.152,,
-0.04998,0.148,,
-0.04996,0.15,,
-0.049939997,0.15,,
-0.04992,0.146,,
-0.0499,0.154,,
-0.049879997,0.144,,
-0.049859997,0.16,,
-0.04984,0.144,,
-0.04982,0.148,,
-0.049799997,0.136,,
-0.04978,0.128,,
-0.04976,0.138,,
-0.049739997,0.132,,
-0.04972,0.146,,
-0.0497,0.132,,
-0.049679997,0.144,,
-0.049659997,0.142,,
-0.04964,0.134,,
-0.04962,0.144,,
-0.049599997,0.13,,
-0.04958,0.138,,
-0.04956,0.132,,
-0.049539997,0.128,,
-0.049519997,0.128,,
-0.0495,0.32,,
-0.04948,0.32,,
-0.049459997,0.194,,
-0.04944,0.096,,
-0.04942,0.07,,
-0.049399997,0.092,,
-0.049379997,0.094,,
-0.04936,0.084,,
-0.04934,0.086,,
-0.049319997,0.088,,
-0.0493,0.084,,
-0.04928,0.088,,
-0.049259997,0.082,,
-0.04924,0.084,,
-0.04922,0.088,,
-0.049199997,0.078,,
-0.049179997,0.082,,
-0.04916,0.032,,
-0.04914,0.01,,
-0.049119997,0,,
-0.0491,0.004,,
-0.04908,0.014,,
-0.049059997,0.006,,
-0.049039997,0.016,,
-0.04902,0.012,,
-0.049,0.03,,
-0.048979997,0.036,,
-0.04896,0.034,,
-0.04894,0.05,,
-0.048919997,0.062,,
-0.048899997,0.066,,
-0.04888,0.08,,
-0.04886,0.084,,
-0.048839997,0.1,,
-0.04882,0.102,,
-0.0488,0.1,,
-0.048779997,0.112,,
-0.04876,0.116,,
-0.04874,0.132,,
-0.04872,0.116,,
-0.048699997,0.128,,
-0.04868,0.134,,
-0.04866,0.124,,
-0.048639997,0.148,,
-0.04862,0.118,,
-0.0486,0.144,,
-0.048579997,0.132,,
-0.048559997,0.11,,
-0.04854,0.134,,
-0.04852,0.108,,
-0.048499997,0.112,,
-0.04848,0.084,,
-0.04846,0.076,,
-0.048439997,0.074,,
-0.048419997,0.042,,
-0.0484,0.056,,
-0.04838,0.044,,
-0.048359997,0.066,,
-0.04834,0.076,,
-0.04832,0.09,,
-0.048299997,0.152,,
-0.048279997,0.15,,
-0.04826,0.178,,
-0.04824,0.186,,
-0.048219997,0.18,,
-0.0482,0.19,,
-0.04818,0.158,,
-0.048159997,0.174,,
-0.04814,0.156,,
-0.04812,0.136,,
-0.048099997,0.146,,
-0.048079997,0.11,,
-0.04806,0.116,,
-0.04804,0.106,,
-0.048019997,0.098,,
-0.048,0.118,,
-0.04798,0.086,,
-0.047959997,0.12,,
-0.047939997,0.112,,
-0.04792,0.118,,
-0.0479,0.14,,
-0.047879997,0.128,,
-0.04786,0.16,,
-0.04784,0.134,,
-0.047819997,0.154,,
-0.047799997,0.162,,
-0.04778,0.14,,
-0.04776,0.164,,
-0.047739997,0.146,,
-0.04772,0.17,,
-0.0477,0.16,,
-0.047679997,0.148,,
-0.04766,0.176,,
-0.04764,0.144,,
-0.04762,0.166,,
-0.047599997,0.164,,
-0.04758,0.152,,
-0.04756,0.17,,
-0.047539997,0.144,,
-0.04752,0.176,,
-0.0475,0.158,,
-0.047479997,0.15,,
-0.047459997,0.176,,
-0.04744,0.158,,
-0.04742,0.186,,
-0.047399997,0.152,,
-0.04738,0.174,,
-0.04736,0.18,,
-0.047339997,0.152,,
-0.047319997,0.18,,
-0.0473,0.166,,
-0.04728,0.176,,
-0.047259997,0.166,,
-0.04724,0.158,,
-0.04722,0.178,,
-0.047199997,0.148,,
-0.047179997,0.16,,
-0.04716,0.15,,
-0.04714,0.158,,
-0.047119997,0.158,,
-0.0471,0.144,,
-0.04708,0.16,,
-0.047059997,0.148,,
-0.04704,0.144,,
-0.04702,0.15,,
-0.046999997,0.134,,
-0.046979997,0.144,,
-0.04696,0.138,,
-0.04694,0.128,,
-0.046919997,0.14,,
-0.0469,0.132,,
-0.04688,0.14,,
-0.046859997,0.122,,
-0.046839997,0.118,,
-0.04682,0.13,,
-0.0468,0.12,,
-0.046779997,0.126,,
-0.04676,0.114,,
-0.04674,0.128,,
-0.046719997,0.126,,
-0.046699997,0.116,,
-0.04668,0.128,,
-0.04666,0.116,,
-0.046639997,0.122,,
-0.04662,0.112,,
-0.0466,0.106,,
-0.046579997,0.112,,
-0.04656,0.104,,
-0.04654,0.11,,
-0.04652,0.106,,
-0.046499997,0.098,,
-0.04648,0.096,,
-0.04646,0.09,,
-0.046439997,0.1,,
-0.04642,0.096,,
-0.0464,0.09,,
-0.046379997,0.094,,
-0.046359997,0.09,,
-0.04634,0.102,,
-0.04632,0.092,,
-0.046299997,0.096,,
-0.04628,0.09,,
-0.04626,0.088,,
-0.046239997,0.09,,
-0.046219997,0.082,,
-0.0462,0.088,,
-0.04618,0.086,,
-0.046159997,0.09,,
-0.04614,0.086,,
-0.04612,0.078,,
-0.046099997,0.082,,
-0.04608,0.076,,
-0.04606,0.084,,
-0.04604,0.06,,
-0.046019997,0.05,,
-0.046,0.058,,
-0.04598,0.054,,
-0.045959997,0.054,,
-0.04594,0.058,,
-0.04592,0.056,,
-0.045899997,0.054,,
-0.045879997,0.052,,
-0.04586,0.052,,
-0.04584,0.05,,
-0.045819997,0.048,,
-0.0458,0.05,,
-0.04578,0.044,,
-0.045759997,0.038,,
-0.045739997,0.04,,
-0.04572,0.03,,
-0.0457,0.034,,
-0.045679997,0.016,,
-0.04566,0.02,,
-0.04564,0.018,,
-0.045619997,0.006,,
-0.045599997,0.02,,
-0.04558,0.014,,
-0.04556,0.024,,
-0.045539997,0.018,,
-0.04552,0.03,,
-0.0455,0.038,,
-0.045479997,0.022,,
-0.04546,0.034,,
-0.04544,0.018,,
-0.04542,0.03,,
-0.045399997,0.012,,
-0.04538,0.006,,
-0.04536,0.024,,
-0.045339997,0.01,,
-0.04532,0.022,,
-0.0453,0.01,,
-0.045279997,0.028,,
-0.045259997,0.016,,
-0.04524,0.016,,
-0.04522,0.022,,
-0.045199997,0.016,,
-0.04518,0.026,,
-0.04516,0.018,,
-0.045139997,0.022,,
-0.045119997,0.1,,
-0.0451,0.018,,
-0.04508,0.046,,
-0.045059997,0.028,,
-0.04504,0.08,,
-0.04502,0.022,,
-0.044999997,0.038,,
-0.04498,0.05,,
-0.04496,0.052,,
-0.04494,0.096,,
-0.044919997,0.09,,
-0.0449,0.072,,
-0.04488,0.078,,
-0.044859997,0.092,,
-0.04484,0.066,,
-0.04482,0.078,,
-0.044799997,0.064,,
-0.044779997,0.078,,
-0.04476,0.066,,
-0.04474,0.054,,
-0.044719997,0.086,,
-0.0447,0.068,,
-0.04468,0.082,,
-0.044659997,0.062,,
-0.044639997,0.082,,
-0.04462,0.074,,
-0.0446,0.062,,
-0.044579997,0.078,,
-0.04456,0.074,,
-0.04454,0.072,,
-0.044519997,0.058,,
-0.044499997,0.08,,
-0.04448,0.082,,
-0.04446,0.066,,
-0.044439997,0.072,,
-0.04442,0.066,,
-0.0444,0.084,,
-0.044379997,0.062,,
-0.04436,0.068,,
-0.04434,0.07,,
-0.04432,0.068,,
-0.044299997,0.066,,
-0.04428,0.074,,
-0.04426,0.072,,
-0.044239997,0.07,,
-0.04422,0.082,,
-0.0442,0.068,,
-0.044179997,0.066,,
-0.044159997,0.062,,
-0.04414,0.068,,
-0.04412,0.07,,
-0.044099997,0.062,,
-0.04408,0.074,,
-0.04406,0.072,,
-0.044039997,0.078,,
-0.044019997,0.068,,
-0.044,0.074,,
-0.04398,0.066,,
-0.043959997,0.066,,
-0.04394,0.072,,
-0.04392,0.068,,
-0.043899997,0.076,,
-0.04388,0.062,,
-0.04386,0.078,,
-0.04384,0.068,,
-0.043819997,0.062,,
-0.0438,0.074,,
-0.04378,0.056,,
-0.043759997,0.084,,
-0.04374,0.06,,
-0.04372,0.064,,
-0.043699997,0.07,,
-0.043679997,0.056,,
-0.04366,0.072,,
-0.04364,0.064,,
-0.043619997,0.074,,
-0.0436,0.064,,
-0.04358,0.064,,
-0.043559997,0.078,,
-0.043539997,0.06,,
-0.04352,0.064,,
-0.0435,0.066,,
-0.043479997,0.058,,
-0.04346,0.068,,
-0.04344,0.05,,
-0.043419997,0.064,,
-0.043399997,0.074,,
-0.04338,0.056,,
-0.04336,0.068,,
-0.043339997,0.058,,
-0.04332,0.064,,
-0.0433,0.062,,
-0.043279997,0.054,,
-0.04326,0.066,,
-0.04324,0.052,,
-0.04322,0.064,,
-0.043199997,0.056,,
-0.04318,0.058,,
-0.04316,0.07,,
-0.043139997,0.048,,
-0.04312,0.066,,
-0.0431,0.062,,
-0.043079997,0.056,,
-0.043059997,0.07,,
-0.04304,0.054,,
-0.04302,0.07,,
-0.042999997,0.066,,
-0.04298,0.054,,
-0.04296,0.07,,
-0.042939997,0.056,,
-0.042919997,0.082,,
-0.0429,0.056,,
-0.04288,0.06,,
-0.042859997,0.076,,
-0.04284,0.056,,
-0.04282,0.082,,
-0.042799997,0.038,,
-0.04278,0.062,,
-0.04276,0.062,,
-0.04274,0.028,,
-0.042719997,0.062,,
-0.0427,0.042,,
-0.04268,0.058,,
-0.042659997,0.046,,
-0.04264,0.038,,
-0.04262,0.064,,
-0.042599997,0.038,,
-0.042579997,0.054,,
-0.04256,0.048,,
-0.04254,0.052,,
-0.042519997,0.062,,
-0.0425,0.046,,
-0.04248,0.07,,
-0.042459997,0.054,,
-0.042439997,0.046,,
-0.04242,0.064,,
-0.0424,0.046,,
-0.042379997,0.064,,
-0.04236,0.048,,
-0.04234,0.048,,
-0.042319997,0.06,,
-0.0423,0.04,,
-0.04228,0.064,,
-0.04226,0.048,,
-0.042239997,0.044,,
-0.04222,0.056,,
-0.0422,0.042,,
-0.042179997,0.062,,
-0.04216,0.034,,
-0.04214,0.05,,
-0.04212,0.048,,
-0.042099997,0.038,,
-0.04208,0.052,,
-0.04206,0.036,,
-0.042039997,0.052,,
-0.04202,0.036,,
-0.042,0.038,,
-0.041979997,0.054,,
-0.041959997,0.03,,
-0.04194,0.042,,
-0.04192,0.042,,
-0.041899997,0.046,,
-0.04188,0.044,,
-0.04186,0.034,,
-0.041839997,0.064,,
-0.041819997,0.038,,
-0.0418,0.048,,
-0.04178,0.05,,
-0.041759997,0.04,,
-0.04174,0.052,,
-0.04172,0.034,,
-0.041699997,0.056,,
-0.04168,0.044,,
-0.04166,0.036,,
-0.04164,0.056,,
-0.041619997,0.04,,
-0.0416,0.058,,
-0.04158,0.036,,
-0.041559997,0.046,,
-0.04154,0.058,,
-0.04152,0.034,,
-0.041499997,0.056,,
-0.041479997,0.038,,
-0.04146,0.056,,
-0.04144,-0.188,,
-0.041419997,0.32,,
-0.0414,0.078,,
-0.04138,-0.006,,
-0.041359997,-0.01,,
-0.041339997,0.01,,
-0.04132,-0.008,,
-0.0413,0.01,,
-0.041279997,0.006,,
-0.04126,0.004,,
-0.04124,0.01,,
-0.041219997,0.002,,
-0.0412,0.022,,
-0.04118,-0.004,,
-0.04116,0.016,,
-0.041139997,0.018,,
-0.04112,-0.002,,
-0.0411,0.024,,
-0.041079997,-0.002,,
-0.04106,0.014,,
-0.04104,0.006,,
-0.04102,-0.01,,
-0.040999997,0.01,,
-0.04098,0,,
-0.04096,0.002,,
-0.040939997,-0.002,,
-0.04092,0.006,,
-0.0409,0.014,,
-0.040879997,-0.002,,
-0.040859997,0.01,,
-0.04084,0.002,,
-0.04082,0.014,,
-0.040799997,0.008,,
-0.04078,-0.008,,
-0.04076,0.008,,
-0.040739997,0.004,,
-0.040719997,0.006,,
-0.0407,0.006,,
-0.04068,0.002,,
-0.040659997,0.01,,
-0.04064,-0.002,,
-0.04062,0,,
-0.040599997,0.004,,
-0.04058,0.002,,
-0.04056,0.012,,
-0.04054,0,,
-0.040519997,0.02,,
-0.0405,0.004,,
-0.04048,0.006,,
-0.040459997,0.008,,
-0.04044,0.002,,
-0.04042,0.014,,
-0.040399997,0.006,,
-0.040379997,0.008,,
-0.04036,0.004,,
-0.04034,0.004,,
-0.040319997,0.002,,
-0.0403,0.002,,
-0.04028,0.002,,
-0.040259997,0.012,,
-0.040239997,0.01,,
-0.04022,0.004,,
-0.0402,0.01,,
-0.040179997,0.008,,
-0.04016,0.01,,
-0.04014,0,,
-0.040119997,0.01,,
-0.0401,0.006,,
-0.04008,0.006,,
-0.04006,0.016,,
-0.040039997,-0.002,,
-0.04002,0.002,,
-0.04,-0.004,,
-0.039979997,0.008,,
-0.03996,-0.004,,
-0.03994,-0.006,,
-0.03992,0.002,,
-0.039899997,0.002,,
-0.03988,0.018,,
-0.03986,-0.012,,
-0.039839997,0.016,,
-0.03982,0.016,,
-0.0398,-0.016,,
-0.039779997,0.014,,
-0.039759997,-0.008,,
-0.03974,0.012,,
-0.03972,-0.008,,
-0.039699997,0.006,,
-0.03968,0.012,,
-0.03966,-0.004,,
-0.039639997,0.01,,
-0.039619997,0.002,,
-0.0396,0.026,,
-0.03958,-0.006,,
-0.039559997,-0.008,,
-0.03954,0.02,,
-0.03952,-0.006,,
-0.039499997,0.018,,
-0.03948,-0.004,,
-0.03946,0.01,,
-0.03944,0.002,,
-0.039419997,0.004,,
-0.0394,0.014,,
-0.03938,0.008,,
-0.039359997,-0.01,,
-0.03934,-0.002,,
-0.03932,-0.006,,
-0.039299997,0.004,,
-0.039279997,0.004,,
-0.03926,0,,
-0.03924,0.016,,
-0.039219997,0,,
-0.0392,0.01,,
-0.03918,0.014,,
-0.039159997,-0.022,,
-0.039139997,0.012,,
-0.03912,-0.014,,
-0.0391,0.03,,
-0.039079997,-0.02,,
-0.03906,0.008,,
-0.03904,0.022,,
-0.039019997,-0.01,,
-0.039,0.012,,
-0.03898,-0.012,,
-0.03896,0.024,,
-0.038939997,-0.018,,
-0.03892,-0.018,,
-0.0389,0.026,,
-0.038879997,-0.008,,
-0.03886,0.022,,
-0.03884,-0.016,,
-0.03882,0.022,,
-0.038799997,0.008,,
-0.03878,-0.002,,
-0.03876,0.016,,
-0.038739997,0.004,,
-0.03872,-0.004,,
-0.0387,-0.01,,
-0.038679997,0.002,,
-0.038659997,0.01,,
-0.03864,0.002,,
-0.03862,0.008,,
-0.038599997,0.012,,
-0.03858,0.01,,
-0.03856,0.006,,
-0.038539997,0.01,,
-0.03852,-0.006,,
-0.0385,0.01,,
-0.03848,-0.01,,
-0.038459997,0.016,,
-0.03844,-0.016,,
-0.03842,0.004,,
-0.038399997,0.02,,
-0.03838,-0.002,,
-0.03836,0.014,,
-0.03834,-0.014,,
-0.038319997,0.02,,
-0.0383,-0.006,,
-0.03828,-0.012,,
-0.038259997,0.016,,
-0.03824,-0.006,,
-0.03822,0.02,,
-0.0382,-0.006,,
-0.038179997,0.012,,
-0.03816,0.012,,
-0.03814,0,,
-0.038119997,0.014,,
-0.0381,-0.002,,
-0.03808,0,,
-0.038059997,-0.006,,
-0.038039997,0.002,,
-0.03802,0.004,,
-0.038,-0.004,,
-0.037979997,0.006,,
-0.03796,0.008,,
-0.03794,0.006,,
-0.037919997,0.006,,
-0.0379,0.004,,
-0.03788,0.012,,
-0.03786,0.002,,
-0.037839997,-0.008,,
-0.03782,0.014,,
-0.0378,-0.004,,
-0.037779997,0.01,,
-0.03776,0.012,,
-0.03774,0,,
-0.03772,0.01,,
-0.037699997,-0.01,,
-0.03768,0.008,,
-0.03766,0.004,,
-0.037639997,0.002,,
-0.03762,0.002,,
-0.0376,-0.006,,
-0.037579997,0.022,,
-0.037559997,0,,
-0.03754,0.006,,
-0.03752,0.012,,
-0.037499997,-0.006,,
-0.03748,0.016,,
-0.03746,-0.01,,
-0.037439997,-0.01,,
-0.03742,0.008,,
-0.0374,-0.002,,
-0.03738,0.004,,
-0.037359997,-0.004,,
-0.03734,0.004,,
-0.03732,0.016,,
-0.037299997,-0.002,,
-0.03728,0.008,,
-0.03726,-0.002,,
-0.03724,0.018,,
-0.037219997,0.002,,
-0.0372,-0.006,,
-0.03718,0.028,,
-0.037159997,-0.002,,
-0.03714,0.01,,
-0.03712,0.004,,
-0.0371,0.002,,
-0.037079997,0.012,,
-0.03706,0.002,,
-0.03704,0.01,,
-0.037019997,0.004,,
-0.037,0.008,,
-0.03698,0.006,,
-0.036959997,0,,
-0.036939997,0.01,,
-0.03692,0.002,,
-0.0369,0.002,,
-0.036879997,0.014,,
-0.03686,-0.004,,
-0.03684,0.014,,
-0.036819997,-0.002,,
-0.0368,0.002,,
-0.03678,0.01,,
-0.03676,0,,
-0.036739997,0.012,,
-0.03672,-0.002,,
-0.0367,0.008,,
-0.036679997,0.01,,
-0.03666,0,,
-0.03664,0.01,,
-0.03662,-0.004,,
-0.036599997,0.024,,
-0.03658,0.004,,
-0.03656,0.004,,
-0.036539997,0.022,,
-0.03652,0,,
-0.0365,0.014,,
-0.036479997,0.002,,
-0.036459997,0.012,,
-0.03644,0.012,,
-0.03642,-0.004,,
-0.036399997,0.022,,
-0.03638,0.006,,
-0.03636,0.012,,
-0.036339997,0.012,,
-0.03632,0.008,,
-0.0363,0.02,,
-0.03628,0,,
-0.036259997,0.016,,
-0.03624,0.01,,
-0.03622,0.006,,
-0.036199997,0.016,,
-0.03618,0.002,,
-0.03616,0.018,,
-0.03614,0.008,,
-0.036119997,0.006,,
-0.0361,0.022,,
-0.03608,0.002,,
-0.036059997,0.014,,
-0.03604,0.006,,
-0.03602,0.014,,
-0.036,0.012,,
-0.035979997,0.004,,
-0.03596,0.024,,
-0.03594,0.008,,
-0.035919997,0.014,,
-0.0359,0.014,,
-0.03588,0.01,,
-0.035859997,0.022,,
-0.03584,0.004,,
-0.03582,0.018,,
-0.0358,0.012,,
-0.035779997,0.01,,
-0.03576,0.02,,
-0.03574,0.01,,
-0.035719997,0.014,,
-0.0357,0.014,,
-0.03568,0.012,,
-0.03566,0.018,,
-0.035639997,0.002,,
-0.03562,0.02,,
-0.0356,0.014,,
-0.035579997,0.012,,
-0.03556,0.018,,
-0.03554,0.004,,
-0.03552,0.026,,
-0.035499997,0.008,,
-0.03548,0.014,,
-0.03546,0.028,,
-0.035439997,0.01,,
-0.03542,0.018,,
-0.0354,0.016,,
-0.035379997,0.026,,
-0.035359997,0.018,,
-0.03534,0.02,,
-0.03532,0.028,,
-0.035299997,0.018,,
-0.03528,0.028,,
-0.03526,0.022,,
-0.035239997,0.026,,
-0.03522,0.036,,
-0.0352,0.02,,
-0.03518,0.032,,
-0.035159997,0.036,,
-0.03514,0.036,,
-0.03512,0.044,,
-0.035099997,0.034,,
-0.03508,0.04,,
-0.03506,0.042,,
-0.03504,0.046,,
-0.035019997,0.048,,
-0.035,0.046,,
-0.03498,0.054,,
-0.034959997,0.044,,
-0.03494,0.052,,
-0.03492,0.05,,
-0.0349,0.048,,
-0.034879997,0.06,,
-0.03486,0.046,,
-0.03484,0.05,,
-0.034819997,0.056,,
-0.0348,0.048,,
-0.03478,0.058,,
-0.034759997,0.056,,
-0.03474,0.054,,
-0.03472,0.054,,
-0.0347,0.046,,
-0.034679997,0.058,,
-0.03466,0.054,,
-0.03464,0.048,,
-0.034619997,0.05,,
-0.0346,0.044,,
-0.03458,0.054,,
-0.03456,0.04,,
-0.034539997,0.038,,
-0.03452,0.038,,
-0.0345,0.03,,
-0.034479997,0.042,,
-0.03446,0.038,,
-0.03444,0.058,,
-0.03442,0.07,,
-0.034399997,0.096,,
-0.03438,0.11,,
-0.03436,0.108,,
-0.034339997,0.13,,
-0.03432,0.116,,
-0.0343,0.134,,
-0.034279997,0.11,,
-0.034259997,0.1,,
-0.03424,0.108,,
-0.03422,0.09,,
-0.034199997,0.098,,
-0.03418,0.086,,
-0.03416,0.092,,
-0.034139997,0.082,,
-0.03412,0.084,,
-0.0341,0.09,,
-0.03408,0.086,,
-0.034059997,0.088,,
-0.03404,0.09,,
-0.03402,0.096,,
-0.033999997,0.1,,
-0.03398,0.102,,
-0.03396,0.106,,
-0.03394,0.12,,
-0.033919997,0.118,,
-0.0339,0.12,,
-0.03388,0.124,,
-0.033859997,0.11,,
-0.03384,0.128,,
-0.03382,0.12,,
-0.0338,0.136,,
-0.033779997,0.126,,
-0.03376,0.144,,
-0.03374,0.154,,
-0.033719997,0.14,,
-0.0337,0.154,,
-0.03368,0.144,,
-0.033659997,0.164,,
-0.03364,0.144,,
-0.03362,0.136,,
-0.0336,0.162,,
-0.033579997,0.146,,
-0.03356,0.166,,
-0.03354,0.136,,
-0.033519997,0.164,,
-0.0335,0.152,,
-0.03348,0.146,,
-0.03346,0.162,,
-0.033439997,0.146,,
-0.03342,0.148,,
-0.0334,0.138,,
-0.033379997,0.156,,
-0.03336,0.16,,
-0.03334,0.146,,
-0.03332,0.16,,
-0.033299997,0.152,,
-0.03328,0.166,,
-0.03326,0.146,,
-0.033239997,0.148,,
-0.03322,0.148,,
-0.0332,0.15,,
-0.033179997,0.138,,
-0.033159997,0.148,,
-0.03314,0.136,,
-0.03312,0.14,,
-0.033099997,0.15,,
-0.03308,0.132,,
-0.03306,0.134,,
-0.033039997,0.126,,
-0.03302,0.144,,
-0.033,0.13,,
-0.03298,0.122,,
-0.032959997,0.15,,
-0.03294,0.128,,
-0.03292,0.15,,
-0.032899997,0.12,,
-0.03288,0.142,,
-0.03286,0.136,,
-0.03284,0.32,,
-0.032819997,0.32,,
-0.0328,0.172,,
-0.03278,0.076,,
-0.032759997,0.062,,
-0.03274,0.092,,
-0.03272,0.096,,
-0.0327,0.078,,
-0.032679997,0.09,,
-0.03266,0.084,,
-0.03264,0.096,,
-0.032619997,0.082,,
-0.0326,0.08,,
-0.03258,0.084,,
-0.032559997,0.08,,
-0.03254,0.082,,
-0.03252,0.08,,
-0.0325,0.044,,
-0.032479997,0.02,,
-0.03246,0.006,,
-0.03244,0.004,,
-0.032419997,0.006,,
-0.0324,0.006,,
-0.03238,0.014,,
-0.03236,0.014,,
-0.032339997,0.014,,
-0.03232,0.028,,
-0.0323,0.036,,
-0.032279997,0.062,,
-0.03226,0.058,,
-0.03224,0.074,,
-0.03222,0.08,,
-0.032199997,0.082,,
-0.03218,0.096,,
-0.03216,0.09,,
-0.032139997,0.112,,
-0.03212,0.106,,
-0.0321,0.112,,
-0.032079997,0.116,,
-0.03206,0.116,,
-0.03204,0.13,,
-0.03202,0.126,,
-0.031999997,0.136,,
-0.03198,0.132,,
-0.03196,0.126,,
-0.031939997,0.14,,
-0.03192,0.128,,
-0.0319,0.134,,
-0.03188,0.132,,
-0.031859997,0.114,,
-0.03184,0.11,,
-0.03182,0.094,,
-0.031799997,0.084,,
-0.03178,0.064,,
-0.03176,0.05,,
-0.03174,0.05,,
-0.031719997,0.048,,
-0.0317,0.056,,
-0.03168,0.064,,
-0.031659997,0.106,,
-0.03164,0.146,,
-0.03162,0.15,,
-0.0316,0.18,,
-0.031579997,0.184,,
-0.03156,0.194,,
-0.03154,0.18,,
-0.031519997,0.164,,
-0.0315,0.164,,
-0.03148,0.154,,
-0.031459997,0.144,,
-0.03144,0.13,,
-0.03142,0.124,,
-0.0314,0.12,,
-0.031379997,0.098,,
-0.03136,0.104,,
-0.03134,0.104,,
-0.031319997,0.1,,
-0.0313,0.116,,
-0.03128,0.11,,
-0.03126,0.134,,
-0.03124,0.142,,
-0.031219997,0.134,,
-0.0312,0.146,,
-0.03118,0.142,,
-0.03116,0.158,,
-0.03114,0.146,,
-0.03112,0.146,,
-0.0311,0.162,,
-0.03108,0.15,,
-0.03106,0.166,,
-0.03104,0.138,,
-0.03102,0.166,,
-0.031,0.166,,
-0.030979997,0.142,,
-0.03096,0.166,,
-0.03094,0.15,,
-0.03092,0.174,,
-0.0309,0.154,,
-0.03088,0.158,,
-0.03086,0.182,,
-0.03084,0.15,,
-0.03082,0.166,,
-0.0308,0.154,,
-0.03078,0.174,,
-0.03076,0.172,,
-0.03074,0.156,,
-0.03072,0.186,,
-0.0307,0.162,,
-0.03068,0.168,,
-0.03066,0.176,,
-0.03064,0.164,,
-0.03062,0.188,,
-0.030599997,0.158,,
-0.03058,0.168,,
-0.03056,0.166,,
-0.03054,0.148,,
-0.03052,0.172,,
-0.0305,0.15,,
-0.03048,0.166,,
-0.03046,0.15,,
-0.03044,0.148,,
-0.03042,0.166,,
-0.0304,0.13,,
-0.03038,0.152,,
-0.030359997,0.14,,
-0.03034,0.132,,
-0.03032,0.14,,
-0.0303,0.122,,
-0.03028,0.15,,
-0.03026,0.128,,
-0.03024,0.124,,
-0.03022,0.136,,
-0.0302,0.116,,
-0.03018,0.134,,
-0.03016,0.122,,
-0.03014,0.128,,
-0.030119997,0.126,,
-0.0301,0.11,,
-0.03008,0.142,,
-0.03006,0.114,,
-0.03004,0.126,,
-0.03002,0.126,,
-0.03,0.112,,
-0.02998,0.128,,
-0.02996,0.098,,
-0.02994,0.118,,
-0.02992,0.108,,
-0.0299,0.092,,
-0.029879997,0.108,,
-0.02986,0.09,,
-0.02984,0.104,,
-0.02982,0.088,,
-0.0298,0.096,,
-0.02978,0.102,,
-0.02976,0.084,,
-0.02974,0.098,,
-0.02972,0.084,,
-0.0297,0.1,,
-0.02968,0.094,,
-0.02966,0.08,,
-0.02964,0.096,,
-0.02962,0.08,,
-0.0296,0.082,,
-0.02958,0.078,,
-0.02956,0.078,,
-0.02954,0.09,,
-0.02952,0.082,,
-0.0295,0.082,,
-0.02948,0.084,,
-0.02946,0.084,,
-0.02944,0.08,,
-0.02942,0.062,,
-0.0294,0.056,,
-0.02938,0.05,,
-0.02936,0.054,,
-0.02934,0.07,,
-0.02932,0.05,,
-0.0293,0.058,,
-0.02928,0.05,,
-0.029259997,0.042,,
-0.02924,0.05,,
-0.02922,0.044,,
-0.0292,0.05,,
-0.02918,0.046,,
-0.02916,0.048,,
-0.02914,0.046,,
-0.02912,0.048,,
-0.0291,0.044,,
-0.02908,0.046,,
-0.02906,0.038,,
-0.02904,0.022,,
-0.029019997,0.014,,
-0.029,0.02,,
-0.02898,0.012,,
-0.02896,0.016,,
-0.02894,0.016,,
-0.02892,0.014,,
-0.0289,0.026,,
-0.02888,0.026,,
-0.02886,0.034,,
-0.02884,0.03,,
-0.02882,0.026,,
-0.0288,0.026,,
-0.028779997,0.02,,
-0.02876,0.024,,
-0.02874,0.016,,
-0.02872,0.016,,
-0.0287,0.022,,
-0.02868,0.014,,
-0.02866,0.018,,
-0.02864,0.01,,
-0.02862,0.016,,
-0.0286,0.02,,
-0.02858,0.016,,
-0.02856,0.1,,
-0.02854,0.018,,
-0.02852,0.04,,
-0.0285,0.018,,
-0.02848,0.112,,
-0.02846,0.016,,
-0.02844,0.1,,
-0.02842,0.114,,
-0.0284,0.02,,
-0.02838,0.11,,
-0.02836,0.066,,
-0.02834,0.082,,
-0.02832,0.072,,
-0.0283,0.076,,
-0.02828,0.078,,
-0.02826,0.072,,
-0.02824,0.074,,
-0.02822,0.066,,
-0.0282,0.072,,
-0.02818,0.078,,
-0.02816,0.07,,
-0.02814,0.078,,
-0.02812,0.078,,
-0.0281,0.074,,
-0.02808,0.076,,
-0.02806,0.076,,
-0.02804,0.066,,
-0.02802,0.072,,
-0.028,0.06,,
-0.02798,0.086,,
-0.02796,0.058,,
-0.02794,0.072,,
-0.027919997,0.082,,
-0.0279,0.062,,
-0.02788,0.074,,
-0.02786,0.062,,
-0.02784,0.088,,
-0.02782,0.062,,
-0.0278,0.054,,
-0.02778,0.082,,
-0.02776,0.066,,
-0.02774,0.078,,
-0.02772,0.046,,
-0.0277,0.082,,
-0.027679997,0.08,,
-0.02766,0.058,,
-0.02764,0.08,,
-0.02762,0.064,,
-0.0276,0.08,,
-0.02758,0.062,,
-0.02756,0.072,,
-0.02754,0.074,,
-0.02752,0.062,,
-0.0275,0.072,,
-0.02748,0.074,,
-0.02746,0.078,,
-0.02744,0.068,,
-0.02742,0.066,,
-0.0274,0.07,,
-0.02738,0.07,,
-0.02736,0.06,,
-0.02734,0.08,,
-0.02732,0.06,,
-0.0273,0.064,,
-0.02728,0.08,,
-0.02726,0.062,,
-0.02724,0.078,,
-0.02722,0.056,,
-0.0272,0.082,,
-0.02718,0.062,,
-0.02716,0.052,,
-0.02714,0.078,,
-0.02712,0.06,,
-0.0271,0.074,,
-0.02708,0.048,,
-0.02706,0.078,,
-0.02704,0.082,,
-0.02702,0.05,,
-0.027,0.078,,
-0.02698,0.058,,
-0.02696,0.07,,
-0.02694,0.058,,
-0.02692,0.066,,
-0.0269,0.068,,
-0.02688,0.058,,
-0.02686,0.062,,
-0.02684,0.072,,
-0.026819997,0.074,,
-0.0268,0.064,,
-0.02678,0.06,,
-0.02676,0.064,,
-0.02674,0.062,,
-0.02672,0.054,,
-0.0267,0.062,,
-0.02668,0.06,,
-0.02666,0.06,,
-0.02664,0.068,,
-0.02662,0.058,,
-0.0266,0.068,,
-0.026579997,0.056,,
-0.02656,0.062,,
-0.02654,0.056,,
-0.02652,0.048,,
-0.0265,0.062,,
-0.02648,0.058,,
-0.02646,0.074,,
-0.02644,0.054,,
-0.02642,0.062,,
-0.0264,0.066,,
-0.02638,0.052,,
-0.02636,0.066,,
-0.02634,0.048,,
-0.02632,0.058,,
-0.0263,0.06,,
-0.02628,0.052,,
-0.02626,0.064,,
-0.02624,0.06,,
-0.02622,0.06,,
-0.0262,0.066,,
-0.026179998,0.068,,
-0.02616,0.062,,
-0.026139998,0.064,,
-0.02612,0.062,,
-0.026099998,0.052,,
-0.02608,0.048,,
-0.02606,0.058,,
-0.026039998,0.05,,
-0.02602,0.054,,
-0.025999998,0.054,,
-0.02598,0.05,,
-0.02596,0.052,,
-0.025939998,0.05,,
-0.02592,0.05,,
-0.025899998,0.06,,
-0.02588,0.05,,
-0.025859998,0.048,,
-0.02584,0.058,,
-0.02582,0.056,,
-0.025799998,0.052,,
-0.02578,0.054,,
-0.025759998,0.044,,
-0.02574,0.058,,
-0.02572,0.048,,
-0.025699998,0.046,,
-0.02568,0.052,,
-0.025659998,0.05,,
-0.02564,0.048,,
-0.025619998,0.044,,
-0.0256,0.052,,
-0.02558,0.05,,
-0.025559998,0.048,,
-0.02554,0.052,,
-0.025519998,0.046,,
-0.0255,0.054,,
-0.025479998,0.064,,
-0.025459998,0.038,,
-0.02544,0.054,,
-0.025419998,0.046,,
-0.0254,0.04,,
-0.025379998,0.056,,
-0.02536,0.034,,
-0.02534,0.054,,
-0.025319998,0.038,,
-0.0253,0.028,,
-0.025279998,0.054,,
-0.02526,0.036,,
-0.025239998,0.052,,
-0.02522,0.03,,
-0.0252,0.046,,
-0.025179998,0.05,,
-0.02516,0.034,,
-0.025139998,0.052,,
-0.02512,0.032,,
-0.0251,0.058,,
-0.025079998,0.042,,
-0.02506,0.034,,
-0.025039998,0.064,,
-0.02502,0.032,,
-0.024999998,0.048,,
-0.02498,0.038,,
-0.02496,0.046,,
-0.024939998,0.052,,
-0.02492,0.03,,
-0.024899998,0.06,,
-0.02488,0.038,,
-0.02486,0.042,,
-0.024839998,0.06,,
-0.02482,0.036,,
-0.024799998,0.06,,
-0.02478,-0.062,,
-0.024759998,0.32,,
-0.02474,0.12,,
-0.02472,-0.028,,
-0.024699998,0.006,,
-0.02468,0.01,,
-0.024659998,0.004,,
-0.02464,0.012,,
-0.02462,-0.006,,
-0.024599998,0.028,,
-0.02458,-0.006,,
-0.024559998,0.012,,
-0.02454,0.014,,
-0.024519998,-0.01,,
-0.0245,0.014,,
-0.02448,-0.006,,
-0.024459998,0.016,,
-0.02444,0.006,,
-0.024419998,-0.004,,
-0.0244,0.024,,
-0.02438,-0.01,,
-0.02436,0.014,,
-0.02434,0.012,,
-0.024319998,-0.008,,
-0.0243,0.014,,
-0.024279998,-0.006,,
-0.02426,0.026,,
-0.02424,-0.002,,
-0.024219998,-0.008,,
-0.0242,0.02,,
-0.024179998,-0.006,,
-0.02416,0.024,,
-0.024139998,-0.012,,
-0.02412,0.006,,
-0.0241,0.012,,
-0.024079998,-0.014,,
-0.02406,0.016,,
-0.024039998,-0.002,,
-0.02402,0.014,,
-0.024,0.002,,
-0.023979998,-0.002,,
-0.02396,0,,
-0.023939998,-0.004,,
-0.02392,0.008,,
-0.023899998,-0.004,,
-0.02388,0.016,,
-0.02386,0.01,,
-0.023839998,-0.008,,
-0.02382,0.016,,
-0.023799998,0.002,,
-0.02378,0.002,,
-0.02376,0.01,,
-0.023739998,0.002,,
-0.02372,0.012,,
-0.023699998,0.018,,
-0.02368,0.004,,
-0.023659998,0.008,,
-0.02364,0,,
-0.02362,0.016,,
-0.023599998,-0.002,,
-0.02358,0.002,,
-0.023559998,0.01,,
-0.02354,0,,
-0.02352,0.006,,
-0.023499998,-0.004,,
-0.02348,0.008,,
-0.023459998,0.014,,
-0.02344,0.004,,
-0.023419998,0.016,,
-0.0234,0.006,,
-0.02338,0.004,,
-0.023359998,-0.004,,
-0.02334,-0.006,,
-0.023319998,0.008,,
-0.0233,0.002,,
-0.02328,0.006,,
-0.02326,0.006,,
-0.02324,0.018,,
-0.023219998,-0.004,,
-0.0232,-0.012,,
-0.023179998,0.014,,
-0.02316,0,,
-0.02314,0.01,,
-0.023119998,0.012,,
-0.0231,0,,
-0.023079998,0.022,,
-0.02306,0.004,,
-0.02304,0.008,,
-0.02302,0.008,,
-0.023,-0.002,,
-0.022979998,0.01,,
-0.02296,-0.004,,
-0.022939998,0.014,,
-0.02292,-0.008,,
-0.0229,0.01,,
-0.022879998,0.016,,
-0.02286,-0.006,,
-0.022839998,0.02,,
-0.02282,-0.01,,
-0.022799998,0.008,,
-0.02278,-0.006,,
-0.02276,0,,
-0.022739998,0.012,,
-0.02272,-0.006,,
-0.022699998,0.012,,
-0.02268,0,,
-0.02266,0.014,,
-0.022639998,-0.004,,
-0.02262,0.002,,
-0.022599998,0.008,,
-0.02258,0.002,,
-0.022559998,0.004,,
-0.02254,-0.002,,
-0.02252,0.006,,
-0.022499998,0.006,,
-0.02248,0.012,,
-0.022459998,0.004,,
-0.02244,0.014,,
-0.02242,-0.006,,
-0.022399998,0.006,,
-0.02238,0,,
-0.022359998,-0.018,,
-0.02234,0.008,,
-0.022319998,-0.002,,
-0.0223,0.02,,
-0.02228,-0.01,,
-0.022259998,0.014,,
-0.02224,0.018,,
-0.022219998,-0.02,,
-0.0222,0.018,,
-0.02218,-0.018,,
-0.02216,0.026,,
-0.02214,-0.014,,
-0.022119998,-0.012,,
-0.0221,0.024,,
-0.022079998,-0.006,,
-0.02206,0.02,,
-0.02204,-0.002,,
-0.022019998,0.024,,
-0.022,-0.004,,
-0.021979998,-0.006,,
-0.02196,0.016,,
-0.02194,0,,
-0.02192,0.002,,
-0.0219,-0.006,,
-0.021879998,0.004,,
-0.02186,0.02,,
-0.021839998,0.002,,
-0.02182,0.004,,
-0.0218,0.014,,
-0.021779998,-0.002,,
-0.02176,0.008,,
-0.021739998,0.004,,
-0.02172,-0.018,,
-0.021699998,0.008,,
-0.02168,-0.004,,
-0.02166,0.022,,
-0.021639998,-0.014,,
-0.02162,0.014,,
-0.021599998,0.02,,
-0.02158,-0.008,,
-0.02156,0.012,,
-0.021539998,-0.01,,
-0.02152,0.024,,
-0.021499998,-0.014,,
-0.02148,-0.016,,
-0.021459998,0.018,,
-0.02144,-0.006,,
-0.02142,0.02,,
-0.021399998,-0.004,,
-0.02138,0.02,,
-0.021359998,-0.002,,
-0.02134,-0.006,,
-0.02132,0.02,,
-0.021299998,0,,
-0.02128,0.002,,
-0.021259998,-0.012,,
-0.02124,0.006,,
-0.021219998,0.02,,
-0.0212,-0.002,,
-0.02118,0.01,,
-0.021159998,0.006,,
-0.02114,0.006,,
-0.021119998,0.006,,
-0.0211,-0.004,,
-0.02108,-0.012,,
-0.02106,0.006,,
-0.02104,-0.004,,
-0.021019998,0.016,,
-0.021,0.002,,
-0.020979998,0.01,,
-0.02096,0.018,,
-0.02094,0.002,,
-0.020919998,0.008,,
-0.0209,-0.012,,
-0.020879998,0.004,,
-0.02086,-0.006,,
-0.02084,-0.004,,
-0.02082,0.016,,
-0.0208,-0.006,,
-0.020779998,0.02,,
-0.02076,-0.002,,
-0.020739998,0.014,,
-0.02072,0.008,,
-0.0207,0.008,,
-0.020679998,0.008,,
-0.02066,0.006,,
-0.020639998,0,,
-0.02062,0,,
-0.0206,0.008,,
-0.02058,0.002,,
-0.02056,-0.004,,
-0.020539998,0.006,,
-0.02052,0.002,,
-0.020499998,0.004,,
-0.02048,0.004,,
-0.02046,0.002,,
-0.020439998,0.002,,
-0.02042,0,,
-0.020399998,-0.002,,
-0.02038,0.004,,
-0.020359998,0.004,,
-0.02034,0.008,,
-0.02032,0.008,,
-0.020299998,0.01,,
-0.02028,0.002,,
-0.020259998,-0.002,,
-0.02024,0.008,,
-0.02022,0.002,,
-0.020199998,0.008,,
-0.02018,0.002,,
-0.020159998,0,,
-0.02014,0.02,,
-0.020119998,0.006,,
-0.0201,0.006,,
-0.02008,0.01,,
-0.020059998,0.008,,
-0.02004,0.008,,
-0.020019998,0.004,,
-0.02,0.006,,
-0.01998,0.006,,
-0.01996,0.008,,
-0.01994,0.006,,
-0.019919998,-0.002,,
-0.0199,0.01,,
-0.019879998,0.004,,
-0.01986,0.002,,
-0.01984,0.01,,
-0.019819998,0,,
-0.0198,0.01,,
-0.019779998,0,,
-0.01976,0.008,,
-0.01974,0.016,,
-0.01972,0.006,,
-0.0197,0.012,,
-0.019679998,0.004,,
-0.01966,0.02,,
-0.019639998,0.008,,
-0.01962,0.004,,
-0.0196,0.02,,
-0.019579998,0.008,,
-0.01956,0.016,,
-0.019539998,0.002,,
-0.01952,0.008,,
-0.0195,0.018,,
-0.01948,0.004,,
-0.01946,0.016,,
-0.019439998,0.01,,
-0.01942,0.012,,
-0.019399998,0.016,,
-0.01938,0.006,,
-0.01936,0.016,,
-0.019339998,0.008,,
-0.01932,0.008,,
-0.019299998,0.016,,
-0.01928,0.002,,
-0.01926,0.018,,
-0.01924,0.008,,
-0.01922,0.012,,
-0.019199998,0.016,,
-0.01918,0.002,,
-0.019159998,0.026,,
-0.01914,0.006,,
-0.01912,0.018,,
-0.0191,0.022,,
-0.01908,0.004,,
-0.019059998,0.02,,
-0.01904,0.002,,
-0.019019998,0.024,,
-0.019,0.014,,
-0.01898,0.004,,
-0.018959998,0.026,,
-0.01894,0.006,,
-0.018919998,0.018,,
-0.0189,0.008,,
-0.01888,0.02,,
-0.01886,0.022,,
-0.01884,0.002,,
-0.018819998,0.022,,
-0.0188,0.012,,
-0.018779998,0.016,,
-0.01876,0.024,,
-0.01874,0.012,,
-0.018719998,0.03,,
-0.0187,0.008,,
-0.018679998,0.022,,
-0.01866,0.026,,
-0.01864,0.018,,
-0.01862,0.03,,
-0.0186,0.014,,
-0.018579998,0.036,,
-0.01856,0.028,,
-0.018539998,0.022,,
-0.01852,0.05,,
-0.0185,0.026,,
-0.018479998,0.038,,
-0.01846,0.034,,
-0.018439998,0.036,,
-0.01842,0.046,,
-0.0184,0.032,,
-0.01838,0.052,,
-0.01836,0.046,,
-0.018339998,0.05,,
-0.01832,0.052,,
-0.018299998,0.046,,
-0.01828,0.058,,
-0.01826,0.046,,
-0.018239998,0.046,,
-0.01822,0.054,,
-0.018199998,0.04,,
-0.01818,0.056,,
-0.01816,0.046,,
-0.01814,0.048,,
-0.01812,0.054,,
-0.018099998,0.044,,
-0.01808,0.056,,
-0.018059998,0.048,,
-0.01804,0.062,,
-0.01802,0.062,,
-0.018,0.052,,
-0.01798,0.058,,
-0.017959998,0.046,,
-0.01794,0.066,,
-0.01792,0.04,,
-0.0179,0.042,,
-0.01788,0.042,,
-0.017859998,0.026,,
-0.01784,0.042,,
-0.017819998,0.03,,
-0.0178,0.05,,
-0.01778,0.062,,
-0.01776,0.068,,
-0.01774,0.092,,
-0.017719998,0.1,,
-0.0177,0.116,,
-0.017679998,0.12,,
-0.01766,0.124,,
-0.01764,0.132,,
-0.017619998,0.106,,
-0.0176,0.106,,
-0.017579998,0.1,,
-0.01756,0.09,,
-0.01754,0.098,,
-0.01752,0.08,,
-0.0175,0.084,,
-0.017479998,0.086,,
-0.01746,0.08,,
-0.017439998,0.088,,
-0.01742,0.086,,
-0.0174,0.096,,
-0.017379998,0.096,,
-0.01736,0.102,,
-0.017339998,0.102,,
-0.01732,0.108,,
-0.0173,0.114,,
-0.01728,0.104,,
-0.01726,0.112,,
-0.017239998,0.11,,
-0.01722,0.118,,
-0.017199998,0.126,,
-0.01718,0.122,,
-0.01716,0.132,,
-0.017139998,0.132,,
-0.01712,0.138,,
-0.017099998,0.142,,
-0.01708,0.138,,
-0.01706,0.138,,
-0.01704,0.146,,
-0.01702,0.15,,
-0.016999998,0.162,,
-0.01698,0.15,,
-0.016959998,0.158,,
-0.01694,0.16,,
-0.01692,0.146,,
-0.0169,0.162,,
-0.01688,0.142,,
-0.016859998,0.158,,
-0.01684,0.144,,
-0.01682,0.146,,
-0.0168,0.162,,
-0.01678,0.144,,
-0.016759998,0.16,,
-0.01674,0.142,,
-0.016719998,0.162,,
-0.0167,0.146,,
-0.01668,0.142,,
-0.01666,0.164,,
-0.01664,0.148,,
-0.016619998,0.154,,
-0.0166,0.136,,
-0.016579998,0.156,,
-0.01656,0.16,,
-0.01654,0.14,,
-0.016519998,0.15,,
-0.0165,0.142,,
-0.016479998,0.144,,
-0.01646,0.136,,
-0.01644,0.138,,
-0.01642,0.134,,
-0.0164,0.136,,
-0.016379998,0.136,,
-0.01636,0.144,,
-0.016339998,0.142,,
-0.01632,0.142,,
-0.0163,0.144,,
-0.016279998,0.136,,
-0.01626,0.134,,
-0.016239998,0.124,,
-0.01622,0.142,,
-0.0162,0.122,,
-0.01618,0.122,,
-0.01616,0.32,,
-0.016139998,0.242,,
-0.01612,0.078,,
-0.016099998,0.066,,
-0.01608,0.096,,
-0.01606,0.084,,
-0.016039998,0.076,,
-0.01602,0.094,,
-0.015999998,0.076,,
-0.01598,0.092,,
-0.01596,0.072,,
-0.01594,0.094,,
-0.01592,0.098,,
-0.015899998,0.068,,
-0.01588,0.084,,
-0.015859998,0.072,,
-0.01584,0.048,,
-0.01582,0.01,,
-0.0158,0.008,,
-0.01578,0.004,,
-0.015759998,0.004,,
-0.01574,0.014,,
-0.01572,0.018,,
-0.0157,0.026,,
-0.01568,0.024,,
-0.015659998,0.03,,
-0.01564,0.044,,
-0.01562,0.056,,
-0.0156,0.054,,
-0.01558,0.07,,
-0.015559999,0.076,,
-0.01554,0.08,,
-0.01552,0.096,,
-0.0155,0.09,,
-0.01548,0.11,,
-0.01546,0.102,,
-0.015439999,0.118,,
-0.01542,0.108,,
-0.0154,0.106,,
-0.01538,0.132,,
-0.01536,0.12,,
-0.01534,0.138,,
-0.015319999,0.12,,
-0.015299999,0.138,,
-0.01528,0.148,,
-0.01526,0.12,,
-0.01524,0.138,,
-0.01522,0.112,,
-0.015199999,0.128,,
-0.015179999,0.104,,
-0.01516,0.096,,
-0.01514,0.082,,
-0.01512,0.066,,
-0.0151,0.058,,
-0.015079999,0.048,,
-0.015059999,0.052,,
-0.01504,0.054,,
-0.01502,0.076,,
-0.015,0.11,,
-0.01498,0.13,,
-0.014959999,0.154,,
-0.014939999,0.168,,
-0.01492,0.19,,
-0.0149,0.192,,
-0.01488,0.186,,
-0.01486,0.172,,
-0.01484,0.17,,
-0.014819999,0.154,,
-0.0148,0.146,,
-0.01478,0.132,,
-0.01476,0.116,,
-0.01474,0.112,,
-0.01472,0.106,,
-0.014699999,0.106,,
-0.01468,0.094,,
-0.01466,0.108,,
-0.01464,0.116,,
-0.01462,0.118,,
-0.0146,0.13,,
-0.014579999,0.116,,
-0.01456,0.138,,
-0.01454,0.142,,
-0.01452,0.148,,
-0.0145,0.152,,
-0.01448,0.15,,
-0.014459999,0.158,,
-0.01444,0.152,,
-0.01442,0.16,,
-0.0144,0.158,,
-0.01438,0.164,,
-0.01436,0.17,,
-0.014339999,0.15,,
-0.01432,0.156,,
-0.0143,0.158,,
-0.01428,0.158,,
-0.01426,0.172,,
-0.01424,0.154,,
-0.014219999,0.166,,
-0.0142,0.16,,
-0.01418,0.152,,
-0.01416,0.168,,
-0.01414,0.16,,
-0.01412,0.166,,
-0.014099999,0.154,,
-0.01408,0.168,,
-0.01406,0.178,,
-0.01404,0.162,,
-0.01402,0.178,,
-0.014,0.166,,
-0.013979999,0.186,,
-0.013959999,0.172,,
-0.01394,0.154,,
-0.01392,0.18,,
-0.0139,0.162,,
-0.01388,0.162,,
-0.013859999,0.154,,
-0.013839999,0.154,,
-0.01382,0.164,,
-0.0138,0.154,,
-0.01378,0.158,,
-0.01376,0.154,,
-0.01374,0.15,,
-0.013719999,0.15,,
-0.0137,0.134,,
-0.01368,0.144,,
-0.01366,0.138,,
-0.01364,0.128,,
-0.01362,0.144,,
-0.013599999,0.118,,
-0.01358,0.136,,
-0.01356,0.124,,
-0.01354,0.116,,
-0.01352,0.138,,
-0.0135,0.116,,
-0.013479999,0.138,,
-0.01346,0.112,,
-0.01344,0.13,,
-0.01342,0.144,,
-0.0134,0.114,,
-0.01338,0.132,,
-0.013359999,0.112,,
-0.01334,0.138,,
-0.01332,0.118,,
-0.0133,0.108,,
-0.01328,0.134,,
-0.01326,0.098,,
-0.013239999,0.11,,
-0.01322,0.1,,
-0.0132,0.098,,
-0.01318,0.11,,
-0.01316,0.086,,
-0.01314,0.106,,
-0.013119999,0.096,,
-0.0131,0.092,,
-0.01308,0.106,,
-0.01306,0.094,,
-0.01304,0.108,,
-0.01302,0.082,,
-0.012999999,0.09,,
-0.01298,0.1,,
-0.01296,0.082,,
-0.01294,0.102,,
-0.01292,0.088,,
-0.0129,0.094,,
-0.012879999,0.092,,
-0.01286,0.082,,
-0.01284,0.106,,
-0.01282,0.086,,
-0.0128,0.092,,
-0.01278,0.082,,
-0.012759999,0.08,,
-0.012739999,0.09,,
-0.01272,0.082,,
-0.0127,0.104,,
-0.01268,0.084,,
-0.01266,0.08,,
-0.01264,0.074,,
-0.012619999,0.052,,
-0.0126,0.064,,
-0.01258,0.046,,
-0.01256,0.054,,
-0.01254,0.052,,
-0.01252,0.052,,
-0.012499999,0.056,,
-0.01248,0.052,,
-0.01246,0.05,,
-0.01244,0.054,,
-0.01242,0.042,,
-0.0124,0.04,,
-0.012379999,0.018,,
-0.01236,0.024,,
-0.01234,0.022,,
-0.01232,0.008,,
-0.0123,0.018,,
-0.01228,0.004,,
-0.012259999,0.026,,
-0.01224,0.02,,
-0.01222,0.026,,
-0.0122,0.04,,
-0.01218,0.028,,
-0.01216,0.034,,
-0.012139999,0.026,,
-0.01212,0.03,,
-0.0121,0.018,,
-0.01208,0.008,,
-0.01206,0.018,,
-0.01204,0.012,,
-0.012019999,0.02,,
-0.012,0.01,,
-0.01198,0.014,,
-0.01196,0.02,,
-0.01194,0.01,,
-0.01192,0.016,,
-0.011899999,0.018,,
-0.01188,0.018,,
-0.01186,0.018,,
-0.01184,0.014,,
-0.01182,0.014,,
-0.0118,0.008,,
-0.011779999,0.018,,
-0.01176,0.014,,
-0.01174,0.026,,
-0.01172,0.018,,
-0.0117,0.01,,
-0.01168,0.02,,
-0.01166,0.02,,
-0.01164,0.016,,
-0.01162,0.032,,
-0.0116,0.014,,
-0.01158,0.088,,
-0.01156,0.02,,
-0.01154,0.024,,
-0.01152,0.026,,
-0.0115,0.064,,
-0.01148,0.082,,
-0.01146,0.036,,
-0.01144,0.084,,
-0.01142,0.086,,
-0.011399999,0.04,,
-0.01138,0.1,,
-0.01136,0.068,,
-0.01134,0.072,,
-0.01132,0.084,,
-0.0113,0.066,,
-0.011279999,0.074,,
-0.01126,0.072,,
-0.01124,0.062,,
-0.01122,0.074,,
-0.0112,0.068,,
-0.01118,0.074,,
-0.011159999,0.062,,
-0.01114,0.076,,
-0.01112,0.084,,
-0.0111,0.066,,
-0.01108,0.08,,
-0.01106,0.064,,
-0.011039999,0.08,,
-0.01102,0.064,,
-0.011,0.06,,
-0.01098,0.082,,
-0.01096,0.062,,
-0.01094,0.082,,
-0.010919999,0.064,,
-0.0109,0.076,,
-0.01088,0.076,,
-0.01086,0.06,,
-0.01084,0.08,,
-0.01082,0.066,,
-0.010799999,0.066,,
-0.01078,0.062,,
-0.01076,0.07,,
-0.01074,0.078,,
-0.01072,0.06,,
-0.0107,0.07,,
-0.010679999,0.076,,
-0.01066,0.078,,
-0.01064,0.066,,
-0.01062,0.074,,
-0.0106,0.06,,
-0.01058,0.072,,
-0.01056,0.054,,
-0.01054,0.078,,
-0.01052,0.068,,
-0.0105,0.068,,
-0.01048,0.084,,
-0.010459999,0.062,,
-0.010439999,0.07,,
-0.01042,0.062,,
-0.0104,0.07,,
-0.01038,0.062,,
-0.01036,0.048,,
-0.010339999,0.082,,
-0.010319999,0.064,,
-0.0103,0.078,,
-0.01028,0.052,,
-0.01026,0.078,,
-0.01024,0.066,,
-0.010219999,0.054,,
-0.010199999,0.072,,
-0.010179999,0.06,,
-0.01016,0.068,,
-0.01014,0.046,,
-0.01012,0.072,,
-0.010099999,0.076,,
-0.010079999,0.05,,
-0.010059999,0.064,,
-0.01004,0.056,,
-0.01002,0.084,,
-0.01,0.054,,
-0.009979999,0.052,,
-0.009959999,0.06,,
-0.009939999,0.058,,
-0.00992,0.06,,
-0.0099,0.074,,
-0.00988,0.068,,
-0.009859999,0.06,,
-0.009839999,0.068,,
-0.009819999,0.06,,
-0.0098,0.062,,
-0.00978,0.052,,
-0.00976,0.06,,
-0.009739999,0.058,,
-0.009719999,0.052,,
-0.009699999,0.072,,
-0.00968,0.056,,
-0.00966,0.072,,
-0.00964,0.046,,
-0.009619999,0.072,,
-0.009599999,0.074,,
-0.009579999,0.054,,
-0.00956,0.066,,
-0.00954,0.062,,
-0.00952,0.068,,
-0.0095,0.046,,
-0.009479999,0.08,,
-0.009459999,0.064,,
-0.00944,0.052,,
-0.00942,0.054,,
-0.0094,0.04,,
-0.00938,0.072,,
-0.009359999,0.036,,
-0.009339999,0.044,,
-0.00932,0.054,,
-0.0093,0.042,,
-0.00928,0.058,,
-0.00926,0.05,,
-0.009239999,0.064,,
-0.009219999,0.056,,
-0.0092,0.05,,
-0.00918,0.064,,
-0.00916,0.048,,
-0.00914,0.05,,
-0.009119999,0.052,,
-0.009099999,0.054,,
-0.00908,0.054,,
-0.00906,0.048,,
-0.00904,0.052,,
-0.00902,0.058,,
-0.008999999,0.048,,
-0.008979999,0.062,,
-0.00896,0.042,,
-0.00894,0.042,,
-0.00892,0.054,,
-0.0089,0.044,,
-0.008879999,0.058,,
-0.008859999,0.036,,
-0.008839999,0.052,,
-0.00882,0.054,,
-0.0088,0.04,,
-0.00878,0.052,,
-0.008759999,0.034,,
-0.008739999,0.052,,
-0.008719999,0.042,,
-0.0087,0.046,,
-0.00868,0.05,,
-0.00866,0.036,,
-0.008639999,0.054,,
-0.008619999,0.05,,
-0.008599999,0.046,,
-0.00858,0.052,,
-0.00856,0.044,,
-0.00854,0.052,,
-0.008519999,0.042,,
-0.008499999,0.042,,
-0.008479999,0.05,,
-0.00846,0.04,,
-0.00844,0.048,,
-0.00842,0.034,,
-0.0084,0.05,,
-0.008379999,0.054,,
-0.008359999,0.028,,
-0.00834,0.05,,
-0.00832,0.038,,
-0.0083,0.05,,
-0.00828,0.048,,
-0.008259999,0.04,,
-0.008239999,0.052,,
-0.00822,0.044,,
-0.0082,0.05,,
-0.00818,0.054,,
-0.00816,0.062,,
-0.008139999,-0.004,,
-0.008119999,0.034,,
-0.0081,0.32,,
-0.00808,0.194,,
-0.00806,-0.016,,
-0.00804,-0.008,,
-0.008019999,0.008,,
-0.007999999,0.018,,
-0.00798,0.018,,
-0.00796,0,,
-0.00794,0.014,,
-0.00792,0,,
-0.007899999,0.02,,
-0.007879999,0,,
-0.00786,-0.002,,
-0.00784,0.01,,
-0.00782,-0.002,,
-0.0078,0.024,,
-0.007779999,-0.014,,
-0.00776,0.01,,
-0.00774,0.008,,
-0.007719999,-0.014,,
-0.0077,0.018,,
-0.00768,-0.006,,
-0.007659999,0.018,,
-0.00764,-0.002,,
-0.00762,0,,
-0.007599999,0.024,,
-0.00758,-0.01,,
-0.00756,0.01,,
-0.007539999,-0.004,,
-0.00752,0.016,,
-0.0075,0.008,,
-0.007479999,-0.008,,
-0.00746,0.03,,
-0.00744,0,,
-0.00742,0.008,,
-0.0074,0.014,,
-0.00738,-0.008,,
-0.00736,0.022,,
-0.00734,-0.004,,
-0.00732,0.006,,
-0.0073,0.002,,
-0.00728,-0.008,,
-0.00726,0.026,,
-0.00724,-0.004,,
-0.00722,0.016,,
-0.0072,0.004,,
-0.00718,-0.002,,
-0.00716,0.024,,
-0.00714,-0.014,,
-0.00712,0.02,,
-0.0071,0.006,,
-0.00708,0.004,,
-0.00706,0.016,,
-0.00704,-0.002,,
-0.00702,0.016,,
-0.007,0.004,,
-0.006979999,-0.002,,
-0.00696,0.01,,
-0.00694,-0.008,,
-0.006919999,0.01,,
-0.0069,0.004,,
-0.00688,0.01,,
-0.006859999,0.008,,
-0.00684,-0.002,,
-0.00682,0.026,,
-0.006799999,0.002,,
-0.00678,0.012,,
-0.00676,0.02,,
-0.006739999,0.002,,
-0.00672,0.016,,
-0.0067,-0.012,,
-0.006679999,0.012,,
-0.00666,-0.002,,
-0.00664,-0.006,,
-0.006619999,0.012,,
-0.0066,-0.006,,
-0.00658,0.012,,
-0.006559999,-0.028,,
-0.00654,0.022,,
-0.00652,0.004,,
-0.006499999,-0.02,,
-0.00648,0.02,,
-0.00646,-0.012,,
-0.006439999,0.026,,
-0.00642,0.002,,
-0.0064,-0.008,,
-0.006379999,0.028,,
-0.00636,0,,
-0.00634,0.006,,
-0.00632,-0.004,,
-0.0063,0.004,,
-0.00628,0.01,,
-0.00626,-0.006,,
-0.00624,0.014,,
-0.00622,0,,
-0.0062,0.012,,
-0.00618,0,,
-0.00616,-0.002,,
-0.00614,0.022,,
-0.00612,0,,
-0.0061,0.006,,
-0.00608,0.008,,
-0.00606,0,,
-0.00604,0.01,,
-0.00602,-0.01,,
-0.006,0,,
-0.00598,0.004,,
-0.00596,0.002,,
-0.00594,0.002,,
-0.00592,-0.014,,
-0.0059,0.016,,
-0.00588,-0.002,,
-0.00586,-0.002,,
-0.00584,0.006,,
-0.00582,0,,
-0.0058,0.018,,
-0.00578,-0.006,,
-0.00576,0.018,,
-0.00574,0.02,,
-0.00572,0.002,,
-0.005699999,0.014,,
-0.00568,0.01,,
-0.00566,0.014,,
-0.005639999,0.006,,
-0.00562,-0.006,,
-0.0056,0.004,,
-0.005579999,0.002,,
-0.00556,-0.004,,
-0.00554,0.002,,
-0.005519999,0.002,,
-0.0055,0.018,,
-0.00548,-0.004,,
-0.005459999,0.01,,
-0.00544,0.004,,
-0.00542,-0.008,,
-0.005399999,0.014,,
-0.00538,-0.008,,
-0.00536,0.01,,
-0.005339999,-0.008,,
-0.00532,0.006,,
-0.0053,0.014,,
-0.00528,-0.004,,
-0.00526,0.014,,
-0.00524,-0.002,,
-0.00522,0.02,,
-0.0052,-0.002,,
-0.00518,-0.004,,
-0.00516,0.012,,
-0.00514,0,,
-0.00512,0.012,,
-0.0051,-0.002,,
-0.00508,0.01,,
-0.00506,0.004,,
-0.00504,0.01,,
-0.00502,0.012,,
-0.005,0.012,,
-0.00498,-0.008,,
-0.00496,0,,
-0.00494,-0.002,,
-0.00492,-0.008,,
-0.0049,0.008,,
-0.00488,0,,
-0.00486,0.018,,
-0.00484,0,,
-0.00482,0.012,,
-0.0048,0.02,,
-0.00478,-0.01,,
-0.00476,0.012,,
-0.00474,-0.01,,
-0.00472,0.016,,
-0.0047,-0.016,,
-0.00468,0.01,,
-0.00466,0.024,,
-0.00464,-0.01,,
-0.00462,0.008,,
-0.0046,-0.002,,
-0.00458,0.024,,
-0.00456,-0.004,,
-0.00454,-0.008,,
-0.00452,0.018,,
-0.0045,-0.004,,
-0.00448,0.016,,
-0.00446,-0.012,,
-0.00444,0.01,,
-0.00442,0.012,,
-0.0044,0.008,,
-0.00438,0.008,,
-0.00436,0.006,,
-0.00434,-0.01,,
-0.00432,-0.004,,
-0.0043,0.006,,
-0.00428,-0.002,,
-0.00426,0.002,,
-0.00424,0,,
-0.00422,0.012,,
-0.0042,0.024,,
-0.00418,0.012,,
-0.00416,0.012,,
-0.00414,-0.008,,
-0.00412,0.008,,
-0.0041,-0.01,,
-0.00408,0.02,,
-0.00406,-0.008,,
-0.00404,0.004,,
-0.00402,0.014,,
-0.004,0,,
-0.00398,0.01,,
-0.00396,0.002,,
-0.00394,0.02,,
-0.00392,-0.006,,
-0.0039,-0.008,,
-0.00388,0.014,,
-0.00386,-0.004,,
-0.00384,0.022,,
-0.00382,-0.014,,
-0.0038,0.008,,
-0.00378,0.018,,
-0.00376,0.004,,
-0.00374,0.01,,
-0.00372,0.008,,
-0.0037,0.006,,
-0.00368,0.006,,
-0.00366,0,,
-0.00364,0.002,,
-0.00362,0.004,,
-0.0036,0.004,,
-0.00358,0.014,,
-0.00356,0.004,,
-0.00354,0.006,,
-0.00352,0.012,,
-0.0035,0.004,,
-0.00348,0.006,,
-0.00346,-0.004,,
-0.00344,0.01,,
-0.00342,0,,
-0.0034,0.004,,
-0.00338,0.012,,
-0.00336,0.004,,
-0.00334,0.012,,
-0.00332,0.002,,
-0.0033,0.014,,
-0.00328,0.004,,
-0.00326,0,,
-0.00324,0.016,,
-0.00322,0,,
-0.0032,0.012,,
-0.00318,-0.002,,
-0.00316,0.01,,
-0.00314,0.014,,
-0.00312,0.004,,
-0.0031,0.014,,
-0.00308,0.004,,
-0.00306,0.006,,
-0.00304,0.008,,
-0.00302,0.006,,
-0.003,0.01,,
-0.00298,0.006,,
-0.00296,0.01,,
-0.00294,0.016,,
-0.00292,0.008,,
-0.0029,0.012,,
-0.00288,0.016,,
-0.00286,0.014,,
-0.00284,0.012,,
-0.00282,0.002,,
-0.0028,0.014,,
-0.00278,0.008,,
-0.00276,0.012,,
-0.00274,0.014,,
-0.00272,0.012,,
-0.0027,0.016,,
-0.00268,0.01,,
-0.00266,0.014,,
-0.00264,0.012,,
-0.00262,0.012,,
-0.0026,0.012,,
-0.00258,0.012,,
-0.00256,0.016,,
-0.00254,0.01,,
-0.00252,0.012,,
-0.0025,0.012,,
-0.00248,0.012,,
-0.00246,0.014,,
-0.00244,0.002,,
-0.00242,0.008,,
-0.0024,0.016,,
-0.00238,0.008,,
-0.00236,0.016,,
-0.00234,0.006,,
-0.00232,0.014,,
-0.0023,0.02,,
-0.00228,0.01,,
-0.00226,0.018,,
-0.00224,0.012,,
-0.00222,0.026,,
-0.0022,0.01,,
-0.00218,0.012,,
-0.00216,0.028,,
-0.00214,0.012,,
-0.00212,0.026,,
-0.0021,0.012,,
-0.00208,0.018,,
-0.00206,0.024,,
-0.00204,0.01,,
-0.00202,0.028,,
-0.002,0.022,,
-0.00198,0.026,,
-0.00196,0.02,,
-0.00194,0.026,,
-0.00192,0.032,,
-0.0019,0.024,,
-0.00188,0.032,,
-0.00186,0.028,,
-0.00184,0.028,,
-0.00182,0.034,,
-0.0018,0.028,,
-0.00178,0.044,,
-0.00176,0.04,,
-0.00174,0.036,,
-0.00172,0.05,,
-0.0017,0.042,,
-0.00168,0.054,,
-0.00166,0.052,,
-0.00164,0.052,,
-0.00162,0.048,,
-0.0016,0.04,,
-0.00158,0.068,,
-0.00156,0.044,,
-0.00154,0.054,,
-0.00152,0.056,,
-0.0015,0.042,,
-0.00148,0.06,,
-0.00146,0.04,,
-0.00144,0.06,,
-0.00142,0.054,,
-0.0014,0.044,,
-0.00138,0.06,,
-0.00136,0.046,,
-0.00134,0.062,,
-0.00132,0.05,,
-0.0013,0.052,,
-0.00128,0.064,,
-0.00126,0.032,,
-0.00124,0.048,,
-0.00122,0.038,,
-0.0012,0.034,,
-0.00118,0.04,,
-0.00116,0.026,,
-0.00114,0.058,,
-0.00112,0.048,,
-0.0011,0.068,,
-0.00108,0.102,,
-0.00106,0.092,,
-0.00104,0.12,,
-0.00102,0.108,,
-0.001,0.134,,
-0.00098,0.12,,
-0.00096,0.108,,
-0.00094,0.128,,
-0.00092,0.096,,
-0.0009,0.102,,
-0.00088,0.086,,
-0.00086,0.086,,
-0.00084,0.098,,
-0.00082,0.074,,
-0.0008,0.092,,
-0.00078,0.084,,
-0.00076,0.084,,
-0.00074,0.09,,
-0.00072,0.086,,
-0.0007,0.102,,
-0.00068,0.098,,
-0.00066,0.102,,
-0.00064,0.104,,
-0.00062,0.1,,
-0.0006,0.118,,
-0.00058,0.108,,
-0.00056,0.12,,
-0.00054,0.128,,
-0.00052,0.114,,
-0.0005,0.14,,
-0.00048,0.12,,
-0.00046,0.14,,
-0.00044,0.152,,
-0.00042,0.136,,
-0.0004,0.156,,
-0.00038,0.146,,
-0.00036,0.16,,
-0.00034,0.15,,
-0.00032,0.146,,
-0.0003,0.164,,
-0.00028,0.15,,
-0.00026,0.152,,
-0.00024,0.14,,
-0.00022,0.15,,
-0.0002,0.16,,
-0.00018,0.142,,
-0.00016,0.158,,
-0.00014,0.146,,
-0.00012,0.15,,
-0.0001,0.146,,
-0.00008,0.144,,
-0.00006,0.154,,
-0.00004,0.15,,
-0.00002,0.154,,
0,0.156,,
0.00002,0.148,,
0.00004,0.154,,
0.00006,0.144,,
0.00008,0.16,,
0.0001,0.148,,
0.00012,0.142,,
0.00014,0.156,,
0.00016,0.138,,
0.00018,0.154,,
0.0002,0.146,,
0.00022,0.142,,
0.00024,0.142,,
0.00026,0.134,,
0.00028,0.142,,
0.0003,0.136,,
0.00032,0.138,,
0.00034,0.138,,
0.00036,0.14,,
0.00038,0.132,,
0.0004,0.126,,
0.00042,0.134,,
0.00044,0.14,,
0.00046,0.13,,
0.00048,0.128,,
0.0005,0.32,,
0.00052,0.208,,
0.00054,0.064,,
0.00056,0.066,,
0.00058,0.092,,
0.0006,0.084,,
0.00062,0.088,,
0.00064,0.098,,
0.00066,0.084,,
0.00068,0.088,,
0.0007,0.078,,
0.00072,0.09,,
0.00074,0.076,,
0.00076,0.072,,
0.00078,0.09,,
0.0008,0.076,,
0.00082,0.052,,
0.00084,0.012,,
0.00086,0.012,,
0.00088,0.006,,
0.0009,0.002,,
0.00092,0.016,,
0.00094,0.01,,
0.00096,0.018,,
0.00098,0.014,,
0.001,0.03,,
0.00102,0.042,,
0.00104,0.046,,
0.00106,0.062,,
0.00108,0.068,,
0.0011,0.088,,
0.00112,0.084,,
0.00114,0.092,,
0.00116,0.096,,
0.00118,0.104,,
0.0012,0.102,,
0.00122,0.12,,
0.00124,0.116,,
0.00126,0.124,,
0.00128,0.134,,
0.0013,0.122,,
0.00132,0.128,,
0.00134,0.122,,
0.00136,0.136,,
0.00138,0.126,,
0.0014,0.124,,
0.00142,0.138,,
0.00144,0.114,,
0.00146,0.13,,
0.00148,0.094,,
0.0015,0.108,,
0.00152,0.086,,
0.00154,0.058,,
0.00156,0.058,,
0.00158,0.04,,
0.0016,0.05,,
0.00162,0.046,,
0.00164,0.082,,
0.00166,0.108,,
0.00168,0.112,,
0.0017,0.158,,
0.00172,0.168,,
0.00174,0.21,,
0.00176,0.184,,
0.00178,0.172,,
0.0018,0.178,,
0.00182,0.162,,
0.00184,0.162,,
0.00186,0.15,,
0.00188,0.14,,
0.0019,0.128,,
0.00192,0.116,,
0.00194,0.11,,
0.00196,0.098,,
0.00198,0.094,,
0.002,0.104,,
0.00202,0.106,,
0.00204,0.108,,
0.00206,0.122,,
0.00208,0.124,,
0.0021,0.148,,
0.00212,0.14,,
0.00214,0.158,,
0.00216,0.156,,
0.00218,0.142,,
0.0022,0.158,,
0.00222,0.144,,
0.00224,0.164,,
0.00226,0.146,,
0.00228,0.164,,
0.0023,0.172,,
0.00232,0.148,,
0.00234,0.166,,
0.00236,0.152,,
0.00238,0.178,,
0.0024,0.156,,
0.00242,0.152,,
0.00244,0.172,,
0.00246,0.156,,
0.00248,0.172,,
0.0025,0.162,,
0.00252,0.17,,
0.00254,0.17,,
0.00256,0.172,,
0.00258,0.174,,
0.0026,0.17,,
0.00262,0.166,,
0.00264,0.166,,
0.00266,0.172,,
0.00268,0.166,,
0.0027,0.164,,
0.00272,0.168,,
0.00274,0.172,,
0.00276,0.162,,
0.00278,0.162,,
0.0028,0.156,,
0.00282,0.154,,
0.00284,0.158,,
0.00286,0.146,,
0.00288,0.15,,
0.0029,0.146,,
0.00292,0.15,,
0.00294,0.15,,
0.00296,0.144,,
0.00298,0.142,,
0.003,0.126,,
0.00302,0.138,,
0.00304,0.134,,
0.00306,0.134,,
0.00308,0.136,,
0.0031,0.128,,
0.00312,0.138,,
0.00314,0.136,,
0.00316,0.128,,
0.00318,0.136,,
0.0032,0.132,,
0.00322,0.136,,
0.00324,0.12,,
0.00326,0.12,,
0.00328,0.122,,
0.0033,0.12,,
0.00332,0.112,,
0.00334,0.104,,
0.00336,0.11,,
0.00338,0.11,,
0.0034,0.096,,
0.00342,0.11,,
0.00344,0.098,,
0.00346,0.104,,
0.00348,0.092,,
0.0035,0.09,,
0.00352,0.1,,
0.00354,0.09,,
0.00356,0.094,,
0.00358,0.086,,
0.0036,0.096,,
0.00362,0.084,,
0.00364,0.082,,
0.00366,0.094,,
0.00368,0.09,,
0.0037,0.092,,
0.00372,0.08,,
0.00374,0.08,,
0.00376,0.096,,
0.00378,0.084,,
0.0038,0.082,,
0.00382,0.086,,
0.00384,0.074,,
0.00386,0.082,,
0.00388,0.056,,
0.0039,0.062,,
0.00392,0.052,,
0.00394,0.056,,
0.00396,0.058,,
0.00398,0.042,,
0.004,0.056,,
0.00402,0.052,,
0.00404,0.054,,
0.00406,0.06,,
0.00408,0.044,,
0.0041,0.058,,
0.00412,0.044,,
0.00414,0.05,,
0.00416,0.058,,
0.00418,0.04,,
0.0042,0.052,,
0.00422,0.034,,
0.00424,0.046,,
0.00426,0.032,,
0.00428,0.016,,
0.0043,0.028,,
0.00432,0.008,,
0.00434,0.02,,
0.00436,0.008,,
0.00438,0.016,,
0.0044,0.026,,
0.00442,0.008,,
0.00444,0.03,,
0.00446,0.026,,
0.00448,0.026,,
0.0045,0.034,,
0.00452,0.02,,
0.00454,0.034,,
0.00456,0.008,,
0.00458,0.02,,
0.0046,0.024,,
0.00462,0.026,,
0.00464,0.032,,
0.00466,0.008,,
0.00468,0.06,,
0.0047,0.018,,
0.00472,0.03,,
0.00474,0.044,,
0.00476,0.012,,
0.00478,0.044,,
0.0048,0.016,,
0.00482,0.048,,
0.00484,0.026,,
0.00486,0.016,,
0.00488,0.064,,
0.0049,0.072,,
0.00492,0.072,,
0.00494,0.05,,
0.00496,0.06,,
0.00498,0.112,,
0.005,0.074,,
0.00502,0.074,,
0.00504,0.082,,
0.00506,0.064,,
0.00508,0.086,,
0.0051,0.064,,
0.00512,0.07,,
0.00514,0.078,,
0.00516,0.064,,
0.00518,0.076,,
0.0052,0.064,,
0.00522,0.076,,
0.00524,0.076,,
0.00526,0.066,,
0.00528,0.078,,
0.0053,0.066,,
0.00532,0.09,,
0.005339999,0.068,,
0.00536,0.066,,
0.00538,0.082,,
0.005399999,0.064,,
0.00542,0.08,,
0.00544,0.066,,
0.005459999,0.078,,
0.00548,0.078,,
0.0055,0.062,,
0.005519999,0.08,,
0.00554,0.062,,
0.00556,0.068,,
0.005579999,0.064,,
0.0056,0.066,,
0.00562,0.076,,
0.005639999,0.066,,
0.00566,0.074,,
0.00568,0.068,,
0.005699999,0.066,,
0.00572,0.072,,
0.00574,0.058,,
0.00576,0.062,,
0.00578,0.072,,
0.0058,0.06,,
0.00582,0.068,,
0.00584,0.068,,
0.00586,0.074,,
0.00588,0.07,,
0.0059,0.072,,
0.00592,0.068,,
0.00594,0.074,,
0.00596,0.072,,
0.00598,0.07,,
0.006,0.07,,
0.00602,0.066,,
0.00604,0.074,,
0.00606,0.074,,
0.00608,0.068,,
0.0061,0.072,,
0.00612,0.07,,
0.00614,0.07,,
0.00616,0.062,,
0.00618,0.07,,
0.0062,0.06,,
0.00622,0.062,,
0.00624,0.074,,
0.00626,0.072,,
0.00628,0.072,,
0.0063,0.07,,
0.00632,0.072,,
0.00634,0.066,,
0.00636,0.064,,
0.006379999,0.052,,
0.0064,0.068,,
0.00642,0.058,,
0.006439999,0.066,,
0.00646,0.074,,
0.00648,0.058,,
0.006499999,0.068,,
0.00652,0.052,,
0.00654,0.076,,
0.006559999,0.058,,
0.00658,0.052,,
0.0066,0.066,,
0.006619999,0.056,,
0.00664,0.074,,
0.00666,0.048,,
0.006679999,0.07,,
0.0067,0.068,,
0.00672,0.05,,
0.006739999,0.064,,
0.00676,0.06,,
0.00678,0.066,,
0.006799999,0.05,,
